Date: Time, TimeSinceLoad(s), PPID, TimeStamp (Shimmer),Skin Conductance,Skin Resistance,PPG,HRV,Heart Rate,X (Shimmer),Y (Shimmer),Z (Shimmer),Gyro P (Shimmer),Gyro R (Shimmer),Gyro Y (Shimmer),Event
0:25/12/2019 16:42:49.066,2.868034, 4_Baseline, 435036.4725805, 1718, 2076.13427734375, 1347.9853515625, 710.9375, 84.3956069946289, -4.05745077133179, -3.60981440544128, 8.55296230316162, 0.763358771800995, -0.335877865552902, 0.778625965118408,Starts
0:25/12/2019 16:42:49.066,2.868251, 4_Baseline, 435036.4766086, 1718, 2076.13427734375, 1350.18310546875, 710.9375, 84.3956069946289, -4.07420682907104, -3.62178325653076, 8.55056858062744, 0.839694678783417, -0.549618303775787, 0.351145029067993,Starts
0:25/12/2019 16:42:49.066,2.868292, 4_Baseline, 435036.4945076, 1718, 2076.13427734375, 1353.84619140625, 710.9375, 84.3956069946289, -4.08138847351074, -3.62896466255188, 8.57211208343506, 0.748091578483582, -0.931297719478607, 0.427480906248093,Starts
0:25/12/2019 16:42:49.066,2.868331, 4_Baseline, 435036.4946775, 1718, 2076.13427734375, 1358.24169921875, 710.9375, 84.3956069946289, -4.08378219604492, -3.62417721748352, 8.58168792724609, 0.702290058135986, -0.931297719478607, 0.320610672235489,Starts
0:25/12/2019 16:42:49.067,2.868925, 4_Baseline, 435036.4948176, 1718, 2076.13427734375, 1359.70690917969, 710.9375, 84.3956069946289, -4.07899475097656, -3.63135838508606, 8.57929420471191, 0.625954210758209, -1.16030538082123, 0.931297719478607,Starts
0:25/12/2019 16:42:49.067,2.868959, 4_Baseline, 435036.520644, 1716, 2080.07104492188, 1361.90478515625, 710.9375, 84.3956069946289, -4.07420682907104, -3.62178325653076, 8.58647537231445, 0.625954210758209, -1.3893129825592, 0.244274809956551,Starts
0:25/12/2019 16:42:49.067,2.868984, 4_Baseline, 435036.5224838, 1717, 2078.10083007813, 1366.30041503906, 710.9375, 84.3956069946289, -4.07660102844238, -3.59545183181763, 8.58647537231445, 0.732824444770813, -1.19083964824677, 0.458015263080597,Starts
0:25/12/2019 16:42:49.067,2.869009, 4_Baseline, 435036.5226937, 1717, 2078.10083007813, 1374.35900878906, 710.9375, 84.3956069946289, -4.06223821640015, -3.60023927688599, 8.60083770751953, 0.641221344470978, -0.778625965118408, 0.351145029067993,Starts
0:25/12/2019 16:42:49.067,2.869039, 4_Baseline, 435036.5604247, 1717, 2078.10083007813, 1383.8828125, 710.9375, 84.3956069946289, -4.06702566146851, -3.59784555435181, 8.5553560256958, 0.7175572514534, -0.961832046508789, 0.442748099565506,Starts
0:25/12/2019 16:42:49.067,2.869064, 4_Baseline, 435036.5665426, 1717, 2078.10083007813, 1396.33703613281, 710.9375, 84.3956069946289, -4.03111886978149, -3.60023927688599, 8.58408164978027, 0.80916029214859, -1.08396947383881, 0.412213742733002,Starts
0:25/12/2019 16:42:49.067,2.869089, 4_Baseline, 435036.5668031, 1717, 2078.10083007813, 1409.52380371094, 710.9375, 84.3956069946289, -4.04548168182373, -3.60502696037292, 8.5673246383667, 0.870229005813599, -0.824427485466003, 0.564885497093201,Starts
0:25/12/2019 16:42:49.067,2.869112, 4_Baseline, 435036.5953459, 1717, 2078.10083007813, 1427.10620117188, 710.9375, 84.3956069946289, -4.05266284942627, -3.60263323783875, 8.54817485809326, 0.80916029214859, -0.732824444770813, 0.641221344470978,Starts
0:25/12/2019 16:42:49.067,2.869138, 4_Baseline, 435036.5973734, 1717, 2078.10083007813, 1443.22338867188, 710.9375, 84.3956069946289, -4.05505704879761, -3.62417721748352, 8.58168792724609, 0.80916029214859, -0.854961812496185, 0.442748099565506,Starts
0:25/12/2019 16:42:49.067,2.869163, 4_Baseline, 435036.5993732, 1717, 2078.10083007813, 1462.27111816406, 710.9375, 84.3956069946289, -4.04308795928955, -3.61460208892822, 8.57211208343506, 0.7175572514534, -1.14503812789917, 0.396946579217911,Starts
0:25/12/2019 16:42:49.067,2.869187, 4_Baseline, 435036.6013943, 1717, 2078.10083007813, 1482.05126953125, 710.9375, 84.3956069946289, -4.05266284942627, -3.63375234603882, 8.56253719329834, 0.671755731105804, -0.671755731105804, 0.564885497093201,Starts
0:25/12/2019 16:42:49.067,2.869212, 4_Baseline, 435036.601554, 1717, 2078.10083007813, 1505.49450683594, 710.9375, 84.3956069946289, -4.04308795928955, -3.60981440544128, 8.53620624542236, 0.625954210758209, -0.946564912796021, 0.351145029067993,Starts
0:25/12/2019 16:42:49.067,2.86924, 4_Baseline, 435036.6034797, 1716, 2080.07104492188, 1526.73986816406, 710.9375, 84.3956069946289, -4.03590679168701, -3.60023927688599, 8.5553560256958, 0.702290058135986, -1.08396947383881, 0.595419824123383,Starts
0:25/12/2019 16:42:49.067,2.869263, 4_Baseline, 435036.6060005, 1717, 2078.10083007813, 1548.71789550781, 710.9375, 84.3956069946289, -4.05026912689209, -3.61220836639404, 8.55774974822998, 0.564885497093201, -0.793893158435822, 0.671755731105804,Starts
0:25/12/2019 16:42:49.067,2.869287, 4_Baseline, 435036.620218, 1717, 2078.10083007813, 1571.42858886719, 710.9375, 84.3956069946289, -4.03590679168701, -3.62896466255188, 8.5553560256958, 0.80916029214859, -0.702290058135986, 0.885496199131012,Starts
0:25/12/2019 16:42:49.067,2.869311, 4_Baseline, 435036.6242021, 1718, 2076.13427734375, 1590.47619628906, 710.9375, 84.3956069946289, -4.03830051422119, -3.61460208892822, 8.57929420471191, 0.839694678783417, -1.00763356685638, 0.671755731105804,Starts
0:25/12/2019 16:42:49.068,2.869723, 4_Baseline, 435036.6244398, 1716, 2080.07104492188, 1600, 710.9375, 84.3956069946289, -4.02872514724731, -3.62417721748352, 8.55774974822998, 0.702290058135986, -0.687022924423218, 0.503816783428192,Starts
0:25/12/2019 16:42:49.068,2.869782, 4_Baseline, 435036.6632588, 1716, 2080.07104492188, 1602.93041992188, 710.9375, 84.3956069946289, -4.05266284942627, -3.6265709400177, 8.58647537231445, 0.534351170063019, -0.656488537788391, 0.7175572514534,Starts
0:25/12/2019 16:42:49.068,2.86984, 4_Baseline, 435036.6640985, 1716, 2080.07104492188, 1594.87182617188, 710.9375, 84.3956069946289, -4.05745077133179, -3.6265709400177, 8.57690048217773, 0.870229005813599, -0.793893158435822, 1.05343508720398,Starts
0:25/12/2019 16:42:49.068,2.869893, 4_Baseline, 435036.6661904, 1716, 2080.07104492188, 1585.34802246094, 710.9375, 84.3956069946289, -4.05745077133179, -3.63375234603882, 8.56014347076416, 1.05343508720398, -0.366412222385406, 0.900763332843781,Starts
0:25/12/2019 16:42:49.068,2.869942, 4_Baseline, 435036.6682845, 1716, 2080.07104492188, 1572.89379882813, 710.9375, 84.3956069946289, -4.05505704879761, -3.61938953399658, 8.56493091583252, 1.09923660755157, -0.671755731105804, 1.1297709941864,Starts
0:25/12/2019 16:42:49.068,2.869968, 4_Baseline, 435036.6702032, 1716, 2080.07104492188, 1552.38098144531, 710.9375, 84.3956069946289, -4.02393770217896, -3.61220836639404, 8.57211208343506, 0.931297719478607, -0.259541988372803, 1.05343508720398,Starts
0:25/12/2019 16:42:49.068,2.869992, 4_Baseline, 435036.6740879, 1717, 2078.10083007813, 1531.8681640625, 710.9375, 84.3956069946289, -4.03590679168701, -3.62896466255188, 8.56971836090088, 1.00763356685638, -0.259541988372803, 0.992366433143616,Starts
0:25/12/2019 16:42:49.068,2.870016, 4_Baseline, 435036.6930682, 1716, 2080.07104492188, 1511.35534667969, 710.9375, 84.3956069946289, -4.04069423675537, -3.63853979110718, 8.57450675964355, 1.06870234012604, 0.0458015277981758, 1.02290081977844,Starts
0:25/12/2019 16:42:49.068,2.870044, 4_Baseline, 435036.6969978, 1716, 2080.07104492188, 1494.50549316406, 710.9375, 84.3956069946289, -4.04548168182373, -3.63135838508606, 8.56971836090088, 0.885496199131012, -0.0458015277981758, 0.900763332843781,Starts
0:25/12/2019 16:42:49.068,2.870069, 4_Baseline, 435036.697237, 1717, 2078.10083007813, 1476.92309570313, 710.9375, 84.3956069946289, -4.04787540435791, -3.60981440544128, 8.5553560256958, 1.19083964824677, 0.0152671756222844, 1.03816795349121,Starts
0:25/12/2019 16:42:49.068,2.870092, 4_Baseline, 435036.7189431, 1717, 2078.10083007813, 1458.60803222656, 710.9375, 84.3956069946289, -4.04787540435791, -3.6074206829071, 8.57211208343506, 1.1297709941864, -0.167938932776451, 1.20610690116882,Starts
0:25/12/2019 16:42:49.068,2.870116, 4_Baseline, 435036.7190892, 1716, 2080.07104492188, 1443.9560546875, 710.9375, 84.3956069946289, -4.04308795928955, -3.60502696037292, 8.58647537231445, 0.992366433143616, 0.290076345205307, 1.11450386047363,Starts
0:25/12/2019 16:42:49.068,2.870145, 4_Baseline, 435036.7228982, 1716, 2080.07104492188, 1429.30407714844, 710.9375, 84.3956069946289, -4.04069423675537, -3.60981440544128, 8.56014347076416, 0.702290058135986, -0.0763358771800995, 0.916030526161194,Starts
0:25/12/2019 16:42:49.068,2.870168, 4_Baseline, 435036.7249003, 1715, 2082.04516601563, 1414.65197753906, 710.9375, 84.3956069946289, -4.04069423675537, -3.63135838508606, 8.60083770751953, 0.80916029214859, 0.137404575943947, 0.916030526161194,Starts
0:25/12/2019 16:42:49.068,2.870192, 4_Baseline, 435036.7438514, 1716, 2080.07104492188, 1407.32604980469, 710.9375, 84.3956069946289, -4.05266284942627, -3.62896466255188, 8.57929420471191, 0.80916029214859, 0.106870226562023, 1.35877859592438,Starts
0:25/12/2019 16:42:49.068,2.870215, 4_Baseline, 435036.7441006, 1716, 2080.07104492188, 1399.26745605469, 710.9375, 84.3956069946289, -4.09096336364746, -3.6265709400177, 8.58886909484863, 0.824427485466003, -0.198473289608955, 1.14503812789917,Starts
0:25/12/2019 16:42:49.068,2.870278, 4_Baseline, 435036.7442811, 1716, 2080.07104492188, 1391.94140625, 710.9375, 84.3956069946289, -4.0861759185791, -3.61460208892822, 8.5553560256958, 1.02290081977844, -0.152671754360199, 0.977099239826202,Starts
0:25/12/2019 16:42:49.068,2.870303, 4_Baseline, 435036.7718828, 1715, 2082.04516601563, 1386.81323242188, 710.9375, 84.3956069946289, -4.07181310653687, -3.6074206829071, 8.55056858062744, 1.40458011627197, -0.396946579217911, 0.687022924423218,Starts
0:25/12/2019 16:42:49.068,2.870327, 4_Baseline, 435036.7748027, 1716, 2080.07104492188, 1382.41760253906, 710.9375, 84.3956069946289, -4.07420682907104, -3.58108925819397, 8.56493091583252, 0.916030526161194, -0.152671754360199, 0.839694678783417,Starts
0:25/12/2019 16:42:49.068,2.87035, 4_Baseline, 435036.7927745, 1716, 2080.07104492188, 1380.2197265625, 710.9375, 84.3956069946289, -4.05745077133179, -3.60981440544128, 8.57211208343506, 1.03816795349121, -0.290076345205307, 1.02290081977844,Starts
0:25/12/2019 16:42:49.068,2.870378, 4_Baseline, 435036.7949612, 1716, 2080.07104492188, 1376.55676269531, 710.9375, 84.3956069946289, -4.05984449386597, -3.61460208892822, 8.56014347076416, 1.19083964824677, 0.0152671756222844, 1.1297709941864,Starts
0:25/12/2019 16:42:49.068,2.870402, 4_Baseline, 435036.8176894, 1716, 2080.07104492188, 1372.89379882813, 710.9375, 84.3956069946289, -4.05984449386597, -3.61460208892822, 8.59844398498535, 1.26717555522919, -0.198473289608955, 1.31297707557678,Starts
0:25/12/2019 16:42:49.069,2.870448, 4_Baseline, 435036.8179692, 1715, 2082.04516601563, 1369.96337890625, 710.9375, 84.3956069946289, -4.04308795928955, -3.60023927688599, 8.57690048217773, 1.26717555522919, 0.244274809956551, 1.09923660755157,Starts
0:25/12/2019 16:42:49.069,2.870486, 4_Baseline, 435036.8197315, 1715, 2082.04516601563, 1372.1611328125, 710.9375, 84.3956069946289, -4.05745077133179, -3.59545183181763, 8.55774974822998, 1.11450386047363, -0.106870226562023, 0.931297719478607,Starts
0:25/12/2019 16:42:49.069,2.870516, 4_Baseline, 435036.8217002, 1716, 2080.07104492188, 1374.35900878906, 710.9375, 84.3956069946289, -4.07660102844238, -3.58108925819397, 8.5673246383667, 1.02290081977844, 0.0916030555963516, 0.931297719478607,Starts
0:25/12/2019 16:42:49.069,2.870545, 4_Baseline, 435036.8219067, 1716, 2080.07104492188, 1377.28942871094, 710.9375, 84.3956069946289, -4.05026912689209, -3.58587670326233, 8.5553560256958, 1.00763356685638, 0.412213742733002, 0.870229005813599,Starts
0:25/12/2019 16:42:49.069,2.870594, 4_Baseline, 435036.8435907, 1715, 2082.04516601563, 1378.02197265625, 710.9375, 84.3956069946289, -4.05745077133179, -3.60263323783875, 8.57450675964355, 1.09923660755157, 0.0152671756222844, 0.793893158435822,Starts
0:25/12/2019 16:42:49.069,2.870636, 4_Baseline, 435036.8456211, 1715, 2082.04516601563, 1380.95239257813, 710.9375, 84.3956069946289, -4.05984449386597, -3.61460208892822, 8.5673246383667, 1.14503812789917, 0.564885497093201, 1.37404584884644,Starts
0:25/12/2019 16:42:49.069,2.870681, 4_Baseline, 435036.8457781, 1716, 2080.07104492188, 1381.68493652344, 710.9375, 84.3956069946289, -4.10053873062134, -3.61938953399658, 8.55774974822998, 1.16030538082123, 0.427480906248093, 1.06870234012604,Starts
0:25/12/2019 16:42:49.069,2.870722, 4_Baseline, 435036.8711114, 1715, 2082.04516601563, 1382.41760253906, 710.9375, 84.3956069946289, -4.09335708618164, -3.61938953399658, 8.55774974822998, 1.4351145029068, 0.519083976745605, 0.977099239826202,Starts
0:25/12/2019 16:42:49.069,2.870762, 4_Baseline, 435036.8730892, 1715, 2082.04516601563, 1381.68493652344, 710.9375, 84.3956069946289, -4.11011362075806, -3.59784555435181, 8.57450675964355, 1.16030538082123, 0.442748099565506, 1.11450386047363,Starts
0:25/12/2019 16:42:49.069,2.870805, 4_Baseline, 435036.8749777, 1716, 2080.07104492188, 1383.15014648438, 710.9375, 84.3956069946289, -4.11968898773193, -3.6074206829071, 8.55296230316162, 1.22137403488159, 0.366412222385406, 1.28244268894196,Starts
0:25/12/2019 16:42:49.069,2.870877, 4_Baseline, 435036.8751917, 1715, 2082.04516601563, 1383.15014648438, 710.9375, 84.3956069946289, -4.11729526519775, -3.58108925819397, 8.55056858062744, 1.03816795349121, 0, 1.05343508720398,Starts
0:25/12/2019 16:42:49.069,2.87091, 4_Baseline, 435036.8930802, 1715, 2082.04516601563, 1384.61535644531, 710.9375, 84.3956069946289, -4.1053261756897, -3.60502696037292, 8.55774974822998, 1.09923660755157, 0.610687017440796, 1.05343508720398,Starts
0:25/12/2019 16:42:49.069,2.870936, 4_Baseline, 435036.8950011, 1716, 2080.07104492188, 1389.01098632813, 710.9375, 84.3956069946289, -4.11729526519775, -3.60502696037292, 8.55056858062744, 1.26717555522919, 0.229007631540298, 1.02290081977844,Starts
0:25/12/2019 16:42:49.069,2.870959, 4_Baseline, 435036.8952023, 1716, 2080.07104492188, 1398.53479003906, 710.9375, 84.3956069946289, -4.13883924484253, -3.60023927688599, 8.56253719329834, 1.175572514534, 0.0458015277981758, 0.778625965118408,Starts
0:25/12/2019 16:42:49.069,2.870984, 4_Baseline, 435036.9330157, 1715, 2082.04516601563, 1400.73254394531, 687.5, 87.2727279663086, -4.12687015533447, -3.58587670326233, 8.56014347076416, 1.16030538082123, -0.106870226562023, 0.946564912796021,Starts
0:25/12/2019 16:42:49.069,2.871012, 4_Baseline, 435036.9553359, 1715, 2082.04516601563, 1402.19775390625, 687.5, 87.2727279663086, -4.12447643280029, -3.57630157470703, 8.53381252288818, 1.11450386047363, 0.0916030555963516, 0.885496199131012,Starts
0:25/12/2019 16:42:49.069,2.871036, 4_Baseline, 435036.9556097, 1715, 2082.04516601563, 1402.19775390625, 687.5, 87.2727279663086, -4.11968898773193, -3.57390785217285, 8.59365653991699, 0.778625965118408, 0.152671754360199, 0.885496199131012,Starts
0:25/12/2019 16:42:49.069,2.871061, 4_Baseline, 435036.9574807, 1715, 2082.04516601563, 1402.19775390625, 687.5, 87.2727279663086, -4.11968898773193, -3.59545183181763, 8.56253719329834, 0.839694678783417, -0.442748099565506, 0.748091578483582,Starts
0:25/12/2019 16:42:49.069,2.871084, 4_Baseline, 435036.9576234, 1715, 2082.04516601563, 1401.46520996094, 687.5, 87.2727279663086, -4.11490106582642, -3.58108925819397, 8.56493091583252, 0.977099239826202, -0.152671754360199, 1.08396947383881,Starts
0:25/12/2019 16:42:49.069,2.871112, 4_Baseline, 435036.9605414, 1715, 2082.04516601563, 1400.73254394531, 687.5, 87.2727279663086, -4.12447643280029, -3.57630157470703, 8.5553560256958, 0.992366433143616, -0.534351170063019, 1.11450386047363,Starts
0:25/12/2019 16:42:49.069,2.871137, 4_Baseline, 435036.9613314, 1715, 2082.04516601563, 1398.53479003906, 687.5, 87.2727279663086, -4.13165760040283, -3.55475759506226, 8.58168792724609, 1.26717555522919, -0.458015263080597, 1.11450386047363,Starts
0:25/12/2019 16:42:49.113,2.915172, 4_Baseline, 435036.994247, 1715, 2082.04516601563, 1397.80224609375, 687.5, 87.2727279663086, -4.11250734329224, -3.57390785217285, 8.57929420471191, 0.748091578483582, -0.503816783428192, 0.916030526161194,Starts
0:25/12/2019 16:42:49.114,2.915383, 4_Baseline, 435036.9944491, 1714, 2084.02270507813, 1396.33703613281, 687.5, 87.2727279663086, -4.11968898773193, -3.56672644615173, 8.56014347076416, 1.00763356685638, -0.320610672235489, 1.08396947383881,Starts
0:25/12/2019 16:42:49.114,2.915457, 4_Baseline, 435036.9982716, 1715, 2082.04516601563, 1397.06958007813, 687.5, 87.2727279663086, -4.12447643280029, -3.57630157470703, 8.56014347076416, 1.03816795349121, -0.458015263080597, 0.870229005813599,Starts
0:25/12/2019 16:42:49.114,2.91551, 4_Baseline, 435037.000412, 1714, 2084.02270507813, 1393.40661621094, 687.5, 87.2727279663086, -4.09096336364746, -3.58348298072815, 8.55296230316162, 0.778625965118408, -0.503816783428192, 0.824427485466003,Starts
0:25/12/2019 16:42:49.114,2.915571, 4_Baseline, 435037.0045675, 1714, 2084.02270507813, 1394.87182617188, 687.5, 87.2727279663086, -4.10293245315552, -3.58348298072815, 8.5673246383667, 1.05343508720398, -0.244274809956551, 1.20610690116882,Starts
0:25/12/2019 16:42:49.114,2.915635, 4_Baseline, 435037.0048259, 1714, 2084.02270507813, 1395.60437011719, 687.5, 87.2727279663086, -4.09096336364746, -3.57869529724121, 8.53859996795654, 1.1297709941864, -0.167938932776451, 0.80916029214859,Starts
0:25/12/2019 16:42:49.114,2.915737, 4_Baseline, 435037.0050066, 1714, 2084.02270507813, 1399.26745605469, 687.5, 87.2727279663086, -4.09096336364746, -3.57869529724121, 8.56971836090088, 0.977099239826202, -0.167938932776451, 1.08396947383881,Starts
0:25/12/2019 16:42:49.156,2.958075, 4_Baseline, 435037.0441299, 1714, 2084.02270507813, 1403.66296386719, 687.5, 87.2727279663086, -4.11011362075806, -3.5499701499939, 8.57690048217773, 1.02290081977844, -0.0610687024891377, 1.03816795349121,Starts
0:25/12/2019 16:42:49.156,2.958123, 4_Baseline, 435037.0443709, 1714, 2084.02270507813, 1405.86083984375, 687.5, 87.2727279663086, -4.1053261756897, -3.57390785217285, 8.58168792724609, 0.870229005813599, -0.244274809956551, 1.06870234012604,Starts
0:25/12/2019 16:42:49.156,2.958159, 4_Baseline, 435037.0444983, 1714, 2084.02270507813, 1405.12817382813, 687.5, 87.2727279663086, -4.09335708618164, -3.57151412963867, 8.5553560256958, 1.20610690116882, 0.0610687024891377, 1.06870234012604,Starts
0:25/12/2019 16:42:49.157,2.95822, 4_Baseline, 435037.0461917, 1713, 2086.00439453125, 1400, 687.5, 87.2727279663086, -4.07420682907104, -3.56912016868591, 8.56971836090088, 1.11450386047363, 0.335877865552902, 0.961832046508789,Starts
0:25/12/2019 16:42:49.184,2.985802, 4_Baseline, 435037.0690141, 1714, 2084.02270507813, 1394.13916015625, 687.5, 87.2727279663086, -4.10771989822388, -3.55475759506226, 8.5553560256958, 1.11450386047363, 0.320610672235489, 1.49618315696716,Starts
0:25/12/2019 16:42:49.200,3.001602, 4_Baseline, 435037.0939554, 1714, 2084.02270507813, 1386.08056640625, 687.5, 87.2727279663086, -4.11490106582642, -3.55954527854919, 8.56253719329834, 0.793893158435822, 0.458015263080597, 1.1297709941864,Starts
0:25/12/2019 16:42:49.212,3.013397, 4_Baseline, 435037.0959659, 1714, 2084.02270507813, 1376.55676269531, 687.5, 87.2727279663086, -4.13165760040283, -3.54278874397278, 8.56971836090088, 1.00763356685638, 0.290076345205307, 0.916030526161194,Starts
0:25/12/2019 16:42:49.212,3.013442, 4_Baseline, 435037.0961738, 1714, 2084.02270507813, 1366.30041503906, 687.5, 87.2727279663086, -4.12447643280029, -3.54278874397278, 8.55056858062744, 0.824427485466003, 0.229007631540298, 1.22137403488159,Starts
0:25/12/2019 16:42:49.212,3.013468, 4_Baseline, 435037.096376, 1714, 2084.02270507813, 1355.31140136719, 687.5, 87.2727279663086, -4.11490106582642, -3.55236387252808, 8.5673246383667, 0.732824444770813, 0.259541988372803, 1.02290081977844,Starts
0:25/12/2019 16:42:49.212,3.013491, 4_Baseline, 435037.1049406, 1713, 2086.00439453125, 1350.18310546875, 687.5, 87.2727279663086, -4.12208271026611, -3.57390785217285, 8.52423667907715, 1.1297709941864, -0.229007631540298, 1.02290081977844,Starts
0:25/12/2019 16:42:49.223,3.024058, 4_Baseline, 435037.1069705, 1713, 2086.00439453125, 1347.25280761719, 687.5, 87.2727279663086, -4.14362668991089, -3.55715131759644, 8.54817485809326, 0.625954210758209, -0.213740453124046, 0.839694678783417,Starts
0:25/12/2019 16:42:49.223,3.024102, 4_Baseline, 435037.1072912, 1714, 2084.02270507813, 1342.85717773438, 687.5, 87.2727279663086, -4.15320158004761, -3.55475759506226, 8.54817485809326, 0.916030526161194, -0.549618303775787, 0.870229005813599,Starts
0:25/12/2019 16:42:49.223,3.024128, 4_Baseline, 435037.1088996, 1713, 2086.00439453125, 1340.65930175781, 687.5, 87.2727279663086, -4.14602041244507, -3.55236387252808, 8.56014347076416, 0.671755731105804, -0.534351170063019, 1.09923660755157,Starts
0:25/12/2019 16:42:49.256,3.057408, 4_Baseline, 435037.146902, 1713, 2086.00439453125, 1341.39196777344, 687.5, 87.2727279663086, -4.15798902511597, -3.57630157470703, 8.57450675964355, 0.748091578483582, -0.961832046508789, 0.748091578483582,Starts
0:25/12/2019 16:42:49.256,3.057455, 4_Baseline, 435037.1470221, 1712, 2087.98950195313, 1345.05493164063, 687.5, 87.2727279663086, -4.15320158004761, -3.57869529724121, 8.5553560256958, 0.656488537788391, -0.870229005813599, 0.702290058135986,Starts
0:25/12/2019 16:42:49.256,3.05757, 4_Baseline, 435037.1471618, 1714, 2084.02270507813, 1351.64831542969, 687.5, 87.2727279663086, -4.14602041244507, -3.57869529724121, 8.56253719329834, 0.778625965118408, -0.885496199131012, 0.824427485466003,Starts
0:25/12/2019 16:42:49.256,3.057604, 4_Baseline, 435037.1487576, 1713, 2086.00439453125, 1356.77661132813, 687.5, 87.2727279663086, -4.13405132293701, -3.55954527854919, 8.56493091583252, 0.656488537788391, -1.09923660755157, 1.00763356685638,Starts
0:25/12/2019 16:42:49.256,3.057637, 4_Baseline, 435037.1490149, 1714, 2084.02270507813, 1366.30041503906, 687.5, 87.2727279663086, -4.13644504547119, -3.57630157470703, 8.55296230316162, 0.564885497093201, -1.00763356685638, 0.763358771800995,Starts
0:25/12/2019 16:42:49.278,3.080269, 4_Baseline, 435037.1693803, 1713, 2086.00439453125, 1377.28942871094, 687.5, 87.2727279663086, -4.12208271026611, -3.56193900108337, 8.56253719329834, 0.7175572514534, -1.03816795349121, 0.824427485466003,Starts
0:25/12/2019 16:42:49.278,3.080334, 4_Baseline, 435037.1695161, 1713, 2086.00439453125, 1392.67395019531, 687.5, 87.2727279663086, -4.11729526519775, -3.57390785217285, 8.5673246383667, 0.961832046508789, -0.900763332843781, 0.519083976745605,Starts
0:25/12/2019 16:42:49.278,3.080377, 4_Baseline, 435037.1713629, 1713, 2086.00439453125, 1413.91943359375, 687.5, 87.2727279663086, -4.11968898773193, -3.57869529724121, 8.54578113555908, 0.839694678783417, -0.778625965118408, 0.687022924423218,Starts
0:25/12/2019 16:42:49.301,3.102876, 4_Baseline, 435037.1943145, 1713, 2086.00439453125, 1438.09521484375, 687.5, 87.2727279663086, -4.12926387786865, -3.59305810928345, 8.5433874130249, 0.656488537788391, -0.625954210758209, 0.625954210758209,Starts
0:25/12/2019 16:42:49.301,3.102916, 4_Baseline, 435037.194536, 1713, 2086.00439453125, 1460.80590820313, 687.5, 87.2727279663086, -4.11968898773193, -3.57869529724121, 8.55056858062744, 0.870229005813599, -0.656488537788391, 0.442748099565506,Starts
0:25/12/2019 16:42:49.312,3.114086, 4_Baseline, 435037.1963061, 1713, 2086.00439453125, 1487.17944335938, 687.5, 87.2727279663086, -4.12208271026611, -3.57151412963867, 8.53381252288818, 0.702290058135986, -0.7175572514534, 0.656488537788391,Starts
0:25/12/2019 16:42:49.341,3.14248, 4_Baseline, 435037.2192021, 1713, 2086.00439453125, 1512.087890625, 687.5, 87.2727279663086, -4.12447643280029, -3.58587670326233, 8.53620624542236, 0.977099239826202, -0.961832046508789, 0.732824444770813,Starts
0:25/12/2019 16:42:49.341,3.142513, 4_Baseline, 435037.2193302, 1713, 2086.00439453125, 1536.26379394531, 687.5, 87.2727279663086, -4.1053261756897, -3.57151412963867, 8.56253719329834, 0.854961812496185, -0.641221344470978, 0.656488537788391,Starts
0:25/12/2019 16:42:49.341,3.14254, 4_Baseline, 435037.2212648, 1713, 2086.00439453125, 1553.84619140625, 687.5, 87.2727279663086, -4.10053873062134, -3.59305810928345, 8.54578113555908, 0.885496199131012, -1.175572514534, 0.839694678783417,Starts
0:25/12/2019 16:42:49.356,3.157924, 4_Baseline, 435037.2441383, 1713, 2086.00439453125, 1567.765625, 687.5, 87.2727279663086, -4.11729526519775, -3.55954527854919, 8.57690048217773, 0.732824444770813, -0.519083976745605, 0.778625965118408,Starts
0:25/12/2019 16:42:49.356,3.15796, 4_Baseline, 435037.2443245, 1713, 2086.00439453125, 1578.75463867188, 687.5, 87.2727279663086, -4.13644504547119, -3.57869529724121, 8.55056858062744, 0.778625965118408, -0.732824444770813, 0.778625965118408,Starts
0:25/12/2019 16:42:49.356,3.157985, 4_Baseline, 435037.2461533, 1713, 2086.00439453125, 1586.08056640625, 687.5, 87.2727279663086, -4.11490106582642, -3.57151412963867, 8.54578113555908, 1.09923660755157, -0.748091578483582, 0.977099239826202,Starts
0:25/12/2019 16:42:49.356,3.15801, 4_Baseline, 435037.246354, 1712, 2087.98950195313, 1587.54577636719, 687.5, 87.2727279663086, -4.11490106582642, -3.58587670326233, 8.57450675964355, 0.671755731105804, -0.412213742733002, 0.824427485466003,Starts
0:25/12/2019 16:42:49.379,3.180746, 4_Baseline, 435037.2691669, 1712, 2087.98950195313, 1580.95239257813, 687.5, 87.2727279663086, -4.12926387786865, -3.56193900108337, 8.54099369049072, 0.80916029214859, 0.0305343512445688, 0.641221344470978,Starts
0:25/12/2019 16:42:49.379,3.180818, 4_Baseline, 435037.2693058, 1712, 2087.98950195313, 1569.96337890625, 687.5, 87.2727279663086, -4.13405132293701, -3.55954527854919, 8.55056858062744, 1.06870234012604, -0.732824444770813, 0.900763332843781,Starts
0:25/12/2019 16:42:49.379,3.180849, 4_Baseline, 435037.2710425, 1712, 2087.98950195313, 1553.84619140625, 687.5, 87.2727279663086, -4.14123296737671, -3.56672644615173, 8.56014347076416, 0.961832046508789, -0.610687017440796, 0.610687017440796,Starts
0:25/12/2019 16:42:49.423,3.224793, 4_Baseline, 435037.3070132, 1712, 2087.98950195313, 1536.26379394531, 687.5, 87.2727279663086, -4.11729526519775, -3.57390785217285, 8.57450675964355, 0.946564912796021, -0.198473289608955, 0.80916029214859,Starts
0:25/12/2019 16:42:49.423,3.224827, 4_Baseline, 435037.3089528, 1712, 2087.98950195313, 1517.94873046875, 687.5, 87.2727279663086, -4.16995811462402, -3.55236387252808, 8.54578113555908, 0.793893158435822, -0.351145029067993, 0.656488537788391,Starts
0:25/12/2019 16:42:49.457,3.258579, 4_Baseline, 435037.3468894, 1712, 2087.98950195313, 1499.63366699219, 687.5, 87.2727279663086, -4.17474555969238, -3.55954527854919, 8.57690048217773, 0.763358771800995, -0.641221344470978, 0.900763332843781,Starts
0:25/12/2019 16:42:49.468,3.269663, 4_Baseline, 435037.3519406, 1712, 2087.98950195313, 1482.78393554688, 687.5, 87.2727279663086, -4.16277694702148, -3.54518246650696, 8.52423667907715, 1.14503812789917, -0.351145029067993, 0.320610672235489,Starts
0:25/12/2019 16:42:49.468,3.269701, 4_Baseline, 435037.3521838, 1712, 2087.98950195313, 1466.66662597656, 687.5, 87.2727279663086, -4.15320158004761, -3.54757618904114, 8.55774974822998, 0.610687017440796, -0.732824444770813, 0.702290058135986,Starts
0:25/12/2019 16:42:49.468,3.269731, 4_Baseline, 435037.3538024, 1712, 2087.98950195313, 1454.94506835938, 687.5, 87.2727279663086, -4.13165760040283, -3.55954527854919, 8.54099369049072, 1.00763356685638, -0.778625965118408, 0.442748099565506,Starts
0:25/12/2019 16:42:49.468,3.269764, 4_Baseline, 435037.3540208, 1712, 2087.98950195313, 1440.29309082031, 687.5, 87.2727279663086, -4.15080785751343, -3.54518246650696, 8.5553560256958, 0.671755731105804, -0.7175572514534, 0.763358771800995,Starts
0:25/12/2019 16:42:49.468,3.26979, 4_Baseline, 435037.3567639, 1712, 2087.98950195313, 1426.37365722656, 687.5, 87.2727279663086, -4.14123296737671, -3.53560733795166, 8.5673246383667, 0.702290058135986, -1.03816795349121, 0.595419824123383,Starts
0:25/12/2019 16:42:49.468,3.269816, 4_Baseline, 435037.3568992, 1712, 2087.98950195313, 1410.98901367188, 687.5, 87.2727279663086, -4.14123296737671, -3.55954527854919, 8.57450675964355, 0.580152690410614, -1.03816795349121, 0.671755731105804,Starts
0:25/12/2019 16:42:49.468,3.269841, 4_Baseline, 435037.3587582, 1712, 2087.98950195313, 1396.33703613281, 687.5, 87.2727279663086, -4.14602041244507, -3.5499701499939, 8.5553560256958, 0.687022924423218, -0.793893158435822, 0.625954210758209,Starts
0:25/12/2019 16:42:49.502,3.30322, 4_Baseline, 435037.3957974, 1712, 2087.98950195313, 1385.34802246094, 687.5, 87.2727279663086, -4.13644504547119, -3.5403950214386, 8.56971836090088, 0.702290058135986, -0.839694678783417, 0.534351170063019,Starts
0:25/12/2019 16:42:49.502,3.303261, 4_Baseline, 435037.3960696, 1712, 2087.98950195313, 1376.55676269531, 687.5, 87.2727279663086, -4.14362668991089, -3.55475759506226, 8.55296230316162, 0.656488537788391, -0.580152690410614, 0.656488537788391,Starts
0:25/12/2019 16:42:49.502,3.303286, 4_Baseline, 435037.3962268, 1712, 2087.98950195313, 1369.23071289063, 687.5, 87.2727279663086, -4.13883924484253, -3.56433272361755, 8.55296230316162, 0.610687017440796, -0.7175572514534, 0.732824444770813,Starts
0:25/12/2019 16:42:49.512,3.314571, 4_Baseline, 435037.3980035, 1712, 2087.98950195313, 1364.1025390625, 687.5, 87.2727279663086, -4.16995811462402, -3.55475759506226, 8.56493091583252, 0.763358771800995, -0.732824444770813, 0.793893158435822,Starts
0:25/12/2019 16:42:49.512,3.314663, 4_Baseline, 435037.3981453, 1711, 2089.978515625, 1358.97436523438, 687.5, 87.2727279663086, -4.15080785751343, -3.53560733795166, 8.57690048217773, 0.625954210758209, -0.916030526161194, 0.549618303775787,Starts
0:25/12/2019 16:42:49.512,3.314703, 4_Baseline, 435037.3998242, 1712, 2087.98950195313, 1354.57873535156, 687.5, 87.2727279663086, -4.14602041244507, -3.55715131759644, 8.56971836090088, 0.931297719478607, -0.305343508720398, 0.625954210758209,Starts
0:25/12/2019 16:42:49.525,3.326873, 4_Baseline, 435037.4187287, 1712, 2087.98950195313, 1354.57873535156, 687.5, 87.2727279663086, -4.15798902511597, -3.54278874397278, 8.5433874130249, 0.671755731105804, -0.793893158435822, 0.610687017440796,Starts
0:25/12/2019 16:42:49.535,3.336869, 4_Baseline, 435037.4207252, 1711, 2089.978515625, 1356.0439453125, 687.5, 87.2727279663086, -4.1603832244873, -3.5499701499939, 8.53859996795654, 0.488549619913101, -0.702290058135986, 0.870229005813599,Starts
0:25/12/2019 16:42:49.535,3.336913, 4_Baseline, 435037.4266845, 1712, 2087.98950195313, 1361.17211914063, 687.5, 87.2727279663086, -4.15080785751343, -3.54518246650696, 8.56493091583252, 0.442748099565506, -0.992366433143616, 0.946564912796021,Starts
0:25/12/2019 16:42:49.535,3.336942, 4_Baseline, 435037.4286893, 1711, 2089.978515625, 1366.30041503906, 687.5, 87.2727279663086, -4.1603832244873, -3.55954527854919, 8.55056858062744, 0.778625965118408, -0.946564912796021, 0.671755731105804,Starts
0:25/12/2019 16:42:49.558,3.36006, 4_Baseline, 435037.4446349, 1712, 2087.98950195313, 1371.42858886719, 687.5, 87.2727279663086, -4.14362668991089, -3.54518246650696, 8.57211208343506, 0.442748099565506, -0.977099239826202, 0.412213742733002,Starts
0:25/12/2019 16:42:49.558,3.360101, 4_Baseline, 435037.4448552, 1712, 2087.98950195313, 1373.62634277344, 687.5, 87.2727279663086, -4.13165760040283, -3.53800129890442, 8.56014347076416, 0.732824444770813, -1.26717555522919, 0.503816783428192,Starts
0:25/12/2019 16:42:49.579,3.38112, 4_Baseline, 435037.4681528, 1712, 2087.98950195313, 1372.89379882813, 687.5, 87.2727279663086, -4.13644504547119, -3.54518246650696, 8.5673246383667, 0.625954210758209, -0.839694678783417, 0.900763332843781,Starts
0:25/12/2019 16:42:49.579,3.381155, 4_Baseline, 435037.470059, 1711, 2089.978515625, 1370.69592285156, 687.5, 87.2727279663086, -4.12447643280029, -3.5499701499939, 8.56253719329834, 0.366412222385406, -0.946564912796021, 0.687022924423218,Starts
0:25/12/2019 16:42:49.579,3.381206, 4_Baseline, 435037.4702757, 1712, 2087.98950195313, 1365.56774902344, 687.5, 87.2727279663086, -4.12687015533447, -3.53800129890442, 8.56014347076416, 0.763358771800995, -1.02290081977844, 0.793893158435822,Starts
0:25/12/2019 16:42:49.613,3.414986, 4_Baseline, 435037.4940748, 1711, 2089.978515625, 1364.83520507813, 687.5, 87.2727279663086, -4.13165760040283, -3.55236387252808, 8.56253719329834, 0.778625965118408, -0.702290058135986, 0.534351170063019,Starts
0:25/12/2019 16:42:49.613,3.415025, 4_Baseline, 435037.4959803, 1711, 2089.978515625, 1366.30041503906, 687.5, 87.2727279663086, -4.11250734329224, -3.54757618904114, 8.57211208343506, 0.702290058135986, -0.702290058135986, 0.870229005813599,Starts
0:25/12/2019 16:42:49.613,3.415052, 4_Baseline, 435037.4980797, 1712, 2087.98950195313, 1370.69592285156, 687.5, 87.2727279663086, -4.11729526519775, -3.57869529724121, 8.55056858062744, 0.748091578483582, -0.625954210758209, 0.442748099565506,Starts
0:25/12/2019 16:42:49.613,3.415078, 4_Baseline, 435037.4982202, 1711, 2089.978515625, 1376.55676269531, 687.5, 87.2727279663086, -4.12926387786865, -3.55715131759644, 8.5553560256958, 0.610687017440796, -0.580152690410614, 0.503816783428192,Starts
0:25/12/2019 16:42:49.626,3.427889, 4_Baseline, 435037.520084, 1711, 2089.978515625, 1381.68493652344, 687.5, 87.2727279663086, -4.13644504547119, -3.56193900108337, 8.5433874130249, 0.458015263080597, -0.778625965118408, 0.793893158435822,Starts
0:25/12/2019 16:42:49.640,3.441271, 4_Baseline, 435037.5220054, 1712, 2087.98950195313, 1389.01098632813, 687.5, 87.2727279663086, -4.15559530258179, -3.55475759506226, 8.58647537231445, 0.656488537788391, -0.854961812496185, 0.824427485466003,Starts
0:25/12/2019 16:42:49.640,3.441336, 4_Baseline, 435037.5239345, 1712, 2087.98950195313, 1394.87182617188, 687.5, 87.2727279663086, -4.14123296737671, -3.55715131759644, 8.5553560256958, 0.396946579217911, -0.7175572514534, 0.610687017440796,Starts
0:25/12/2019 16:42:49.640,3.441396, 4_Baseline, 435037.5320016, 1711, 2089.978515625, 1397.06958007813, 687.5, 87.2727279663086, -4.15080785751343, -3.54757618904114, 8.5433874130249, 0.702290058135986, -1.03816795349121, 0.488549619913101,Starts
0:25/12/2019 16:42:49.653,3.454768, 4_Baseline, 435037.5440065, 1711, 2089.978515625, 1400, 687.5, 87.2727279663086, -4.14602041244507, -3.55954527854919, 8.54817485809326, 0.519083976745605, -1.02290081977844, 0.671755731105804,Starts
0:25/12/2019 16:42:49.680,3.4825, 4_Baseline, 435037.5679721, 1711, 2089.978515625, 1402.93041992188, 687.5, 87.2727279663086, -4.15559530258179, -3.54278874397278, 8.53620624542236, 0.595419824123383, -1.29770994186401, 0.427480906248093,Starts
0:25/12/2019 16:42:49.680,3.48257, 4_Baseline, 435037.5716699, 1711, 2089.978515625, 1399.26745605469, 687.5, 87.2727279663086, -4.14602041244507, -3.55954527854919, 8.5553560256958, 0.305343508720398, -0.916030526161194, 0.748091578483582,Starts
0:25/12/2019 16:42:49.680,3.482627, 4_Baseline, 435037.5736186, 1711, 2089.978515625, 1395.60437011719, 687.5, 87.2727279663086, -4.13165760040283, -3.57151412963867, 8.55056858062744, 0.564885497093201, -1.31297707557678, 0.778625965118408,Starts
0:25/12/2019 16:42:49.691,3.493521, 4_Baseline, 435037.5756026, 1711, 2089.978515625, 1395.60437011719, 664.0625, 90.3529434204102, -4.12687015533447, -3.57630157470703, 8.52902412414551, 0.519083976745605, -1.1297709941864, 0.80916029214859,Starts
0:25/12/2019 16:42:49.691,3.493561, 4_Baseline, 435037.5777023, 1710, 2091.97143554688, 1397.80224609375, 664.0625, 90.3529434204102, -4.14362668991089, -3.56672644615173, 8.54817485809326, 0.47328245639801, -0.763358771800995, 0.793893158435822,Starts
0:25/12/2019 16:42:49.702,3.504236, 4_Baseline, 435037.5936189, 1711, 2089.978515625, 1402.93041992188, 664.0625, 90.3529434204102, -4.13405132293701, -3.55715131759644, 8.5673246383667, 0.687022924423218, -0.992366433143616, 0.351145029067993,Starts
0:25/12/2019 16:42:49.702,3.504301, 4_Baseline, 435037.593832, 1710, 2091.97143554688, 1402.93041992188, 664.0625, 90.3529434204102, -4.11968898773193, -3.55715131759644, 8.55774974822998, 0.47328245639801, -0.931297719478607, 0.320610672235489,Starts
0:25/12/2019 16:42:49.736,3.537997, 4_Baseline, 435037.6194823, 1711, 2089.978515625, 1401.46520996094, 664.0625, 90.3529434204102, -4.12208271026611, -3.57630157470703, 8.5673246383667, 0.259541988372803, -0.778625965118408, 0.839694678783417,Starts
0:25/12/2019 16:42:49.736,3.538036, 4_Baseline, 435037.6215135, 1710, 2091.97143554688, 1400, 664.0625, 90.3529434204102, -4.11490106582642, -3.56672644615173, 8.53620624542236, 0.458015263080597, -0.47328245639801, 0.427480906248093,Starts
0:25/12/2019 16:42:49.736,3.538073, 4_Baseline, 435037.6234352, 1711, 2089.978515625, 1399.26745605469, 664.0625, 90.3529434204102, -4.12447643280029, -3.58587670326233, 8.53381252288818, 0.748091578483582, -0.580152690410614, 0.396946579217911,Starts
0:25/12/2019 16:42:49.736,3.538108, 4_Baseline, 435037.6235773, 1710, 2091.97143554688, 1395.60437011719, 664.0625, 90.3529434204102, -4.14602041244507, -3.56672644615173, 8.55296230316162, 0.519083976745605, -0.458015263080597, 0.763358771800995,Starts
0:25/12/2019 16:42:49.758,3.560267, 4_Baseline, 435037.6435835, 1710, 2091.97143554688, 1394.13916015625, 664.0625, 90.3529434204102, -4.15798902511597, -3.57869529724121, 8.55296230316162, 0.7175572514534, -0.854961812496185, 0.732824444770813,Starts
0:25/12/2019 16:42:49.770,3.571514, 4_Baseline, 435037.6569106, 1710, 2091.97143554688, 1393.40661621094, 664.0625, 90.3529434204102, -4.13405132293701, -3.56433272361755, 8.56014347076416, 0.564885497093201, -0.916030526161194, 0.580152690410614,Starts
0:25/12/2019 16:42:49.770,3.571721, 4_Baseline, 435037.6628825, 1710, 2091.97143554688, 1392.67395019531, 664.0625, 90.3529434204102, -4.12926387786865, -3.58108925819397, 8.55056858062744, 0.793893158435822, -0.702290058135986, 0.427480906248093,Starts
0:25/12/2019 16:42:49.792,3.593784, 4_Baseline, 435037.6830466, 1709, 2093.96801757813, 1391.20874023438, 664.0625, 90.3529434204102, -4.12447643280029, -3.56672644615173, 8.57929420471191, 0.671755731105804, -0.839694678783417, 0.580152690410614,Starts
0:25/12/2019 16:42:49.811,3.612019, 4_Baseline, 435037.6908018, 1710, 2091.97143554688, 1386.81323242188, 664.0625, 90.3529434204102, -4.15559530258179, -3.56433272361755, 8.57211208343506, 0.839694678783417, -0.671755731105804, 1.02290081977844,Starts
0:25/12/2019 16:42:49.811,3.612051, 4_Baseline, 435037.6927697, 1710, 2091.97143554688, 1382.41760253906, 664.0625, 90.3529434204102, -4.13644504547119, -3.58827042579651, 8.5553560256958, 0.824427485466003, -0.595419824123383, 0.7175572514534,Starts
0:25/12/2019 16:42:49.811,3.612084, 4_Baseline, 435037.692922, 1711, 2089.978515625, 1381.68493652344, 664.0625, 90.3529434204102, -4.13883924484253, -3.54278874397278, 8.56493091583252, 0.595419824123383, -0.259541988372803, 0.748091578483582,Starts
0:25/12/2019 16:42:49.811,3.612109, 4_Baseline, 435037.6947763, 1710, 2091.97143554688, 1374.35900878906, 664.0625, 90.3529434204102, -4.11250734329224, -3.56912016868591, 8.53859996795654, 0.671755731105804, -0.152671754360199, 0.641221344470978,Starts
0:25/12/2019 16:42:49.811,3.612133, 4_Baseline, 435037.6967473, 1709, 2093.96801757813, 1372.89379882813, 664.0625, 90.3529434204102, -4.11490106582642, -3.55954527854919, 8.5433874130249, 0.580152690410614, -0.0610687024891377, 0.625954210758209,Starts
0:25/12/2019 16:42:49.826,3.626923, 4_Baseline, 435037.7187573, 1709, 2093.96801757813, 1372.1611328125, 664.0625, 90.3529434204102, -4.12208271026611, -3.57151412963867, 8.53859996795654, 0.80916029214859, -0.122137404978275, 0.931297719478607,Starts
0:25/12/2019 16:42:49.826,3.626982, 4_Baseline, 435037.7189675, 1710, 2091.97143554688, 1372.89379882813, 664.0625, 90.3529434204102, -4.11968898773193, -3.56433272361755, 8.53620624542236, 1.03816795349121, -0.213740453124046, 1.11450386047363,Starts
0:25/12/2019 16:42:49.826,3.627011, 4_Baseline, 435037.7191839, 1710, 2091.97143554688, 1370.69592285156, 664.0625, 90.3529434204102, -4.13405132293701, -3.57869529724121, 8.56014347076416, 1.00763356685638, -0.137404575943947, 0.900763332843781,Starts
0:25/12/2019 16:42:49.858,3.660732, 4_Baseline, 435037.7446967, 1709, 2093.96801757813, 1368.49816894531, 664.0625, 90.3529434204102, -4.14841413497925, -3.5499701499939, 8.5433874130249, 0.80916029214859, -0.0458015277981758, 0.656488537788391,Starts
0:25/12/2019 16:42:49.859,3.660773, 4_Baseline, 435037.7466977, 1709, 2093.96801757813, 1363.36999511719, 664.0625, 90.3529434204102, -4.15559530258179, -3.55236387252808, 8.57211208343506, 0.763358771800995, -0.244274809956551, 0.778625965118408,Starts
0:25/12/2019 16:42:49.881,3.682803, 4_Baseline, 435037.7686329, 1711, 2089.978515625, 1359.70690917969, 664.0625, 90.3529434204102, -4.16277694702148, -3.55715131759644, 8.56493091583252, 0.870229005813599, -0.47328245639801, 0.946564912796021,Starts
0:25/12/2019 16:42:49.881,3.682868, 4_Baseline, 435037.7688316, 1710, 2091.97143554688, 1356.77661132813, 664.0625, 90.3529434204102, -4.16517066955566, -3.56672644615173, 8.58408164978027, 0.687022924423218, -0.687022924423218, 0.885496199131012,Starts
0:25/12/2019 16:42:49.881,3.682911, 4_Baseline, 435037.7690312, 1709, 2093.96801757813, 1353.84619140625, 664.0625, 90.3529434204102, -4.20347118377686, -3.56433272361755, 8.57690048217773, 0.732824444770813, -0.702290058135986, 0.564885497093201,Starts
0:25/12/2019 16:42:49.881,3.68296, 4_Baseline, 435037.7691721, 1709, 2093.96801757813, 1352.38098144531, 664.0625, 90.3529434204102, -4.18192720413208, -3.53321361541748, 8.56493091583252, 0.946564912796021, -0.961832046508789, 0.549618303775787,Starts
0:25/12/2019 16:42:49.903,3.705089, 4_Baseline, 435037.7965263, 1709, 2093.96801757813, 1351.64831542969, 664.0625, 90.3529434204102, -4.15080785751343, -3.5308198928833, 8.55056858062744, 0.534351170063019, -1.09923660755157, 0.778625965118408,Starts
0:25/12/2019 16:42:49.914,3.716551, 4_Baseline, 435037.7985793, 1709, 2093.96801757813, 1358.97436523438, 664.0625, 90.3529434204102, -4.1603832244873, -3.54757618904114, 8.55296230316162, 0.366412222385406, -0.824427485466003, 0.656488537788391,Starts
0:25/12/2019 16:42:49.914,3.716588, 4_Baseline, 435037.8005471, 1709, 2093.96801757813, 1375.09155273438, 664.0625, 90.3529434204102, -4.16756439208984, -3.55715131759644, 8.52423667907715, 0.625954210758209, -1.08396947383881, 0.763358771800995,Starts
0:25/12/2019 16:42:49.915,3.716626, 4_Baseline, 435037.8007824, 1709, 2093.96801757813, 1399.26745605469, 664.0625, 90.3529434204102, -4.15798902511597, -3.58348298072815, 8.53141784667969, 0.366412222385406, -0.977099239826202, 0.519083976745605,Starts
0:25/12/2019 16:42:49.915,3.716674, 4_Baseline, 435037.8045433, 1709, 2093.96801757813, 1428.57141113281, 664.0625, 90.3529434204102, -4.15080785751343, -3.57630157470703, 8.52902412414551, 0.47328245639801, -1.19083964824677, 0.564885497093201,Starts
0:25/12/2019 16:42:49.967,3.768503, 4_Baseline, 435037.84841, 1709, 2093.96801757813, 1457.14282226563, 664.0625, 90.3529434204102, -4.11490106582642, -3.57390785217285, 8.55296230316162, 0.900763332843781, -1.28244268894196, 0.503816783428192,Starts
0:25/12/2019 16:42:49.967,3.768536, 4_Baseline, 435037.8503756, 1710, 2091.97143554688, 1482.05126953125, 664.0625, 90.3529434204102, -4.16517066955566, -3.57151412963867, 8.56253719329834, 0.503816783428192, -1.1297709941864, 0.7175572514534,Starts
0:25/12/2019 16:42:49.967,3.768564, 4_Baseline, 435037.85063, 1708, 2095.96850585938, 1504.76196289063, 664.0625, 90.3529434204102, -4.13644504547119, -3.55236387252808, 8.52423667907715, 0.595419824123383, -1.22137403488159, 0.534351170063019,Starts
0:25/12/2019 16:42:49.967,3.768595, 4_Baseline, 435037.8524293, 1709, 2093.96801757813, 1526.73986816406, 664.0625, 90.3529434204102, -4.11490106582642, -3.56912016868591, 8.53859996795654, 0.687022924423218, -1.02290081977844, 0.625954210758209,Starts
0:25/12/2019 16:42:49.967,3.768618, 4_Baseline, 435037.8534261, 1709, 2093.96801757813, 1547.25280761719, 664.0625, 90.3529434204102, -4.12926387786865, -3.57630157470703, 8.5433874130249, 0.946564912796021, -0.80916029214859, 0.671755731105804,Starts
0:25/12/2019 16:42:49.967,3.768642, 4_Baseline, 435037.8555058, 1709, 2093.96801757813, 1566.30041503906, 664.0625, 90.3529434204102, -4.11729526519775, -3.57390785217285, 8.54817485809326, 0.671755731105804, -0.610687017440796, 0.763358771800995,Starts
0:25/12/2019 16:42:50.004,3.805728, 4_Baseline, 435037.894273, 1710, 2091.97143554688, 1580.95239257813, 664.0625, 90.3529434204102, -4.11968898773193, -3.56912016868591, 8.52423667907715, 0.580152690410614, -0.763358771800995, 0.641221344470978,Starts
0:25/12/2019 16:42:50.004,3.805774, 4_Baseline, 435037.8945085, 1709, 2093.96801757813, 1589.74353027344, 664.0625, 90.3529434204102, -4.11490106582642, -3.56433272361755, 8.53620624542236, 0.687022924423218, -0.290076345205307, 0.931297719478607,Starts
0:25/12/2019 16:42:50.004,3.805801, 4_Baseline, 435037.8947275, 1709, 2093.96801757813, 1590.47619628906, 664.0625, 90.3529434204102, -4.14602041244507, -3.56193900108337, 8.57450675964355, 0.625954210758209, -0.595419824123383, 0.824427485466003,Starts
0:25/12/2019 16:42:50.004,3.805827, 4_Baseline, 435037.89737, 1708, 2095.96850585938, 1582.41760253906, 664.0625, 90.3529434204102, -4.13644504547119, -3.57630157470703, 8.57450675964355, 0.534351170063019, -0.259541988372803, 0.80916029214859,Starts
0:25/12/2019 16:42:50.004,3.80593, 4_Baseline, 435037.8982676, 1708, 2095.96850585938, 1571.42858886719, 664.0625, 90.3529434204102, -4.14841413497925, -3.56433272361755, 8.5553560256958, 0.900763332843781, -0.351145029067993, 0.824427485466003,Starts
0:25/12/2019 16:42:50.015,3.817217, 4_Baseline, 435037.9002726, 1708, 2095.96850585938, 1557.50915527344, 664.0625, 90.3529434204102, -4.15559530258179, -3.56672644615173, 8.57211208343506, 0.595419824123383, -0.335877865552902, 0.870229005813599,Starts
0:25/12/2019 16:42:50.026,3.828136, 4_Baseline, 435037.9192916, 1708, 2095.96850585938, 1539.19409179688, 664.0625, 90.3529434204102, -4.15559530258179, -3.54278874397278, 8.56014347076416, 0.503816783428192, -0.167938932776451, 0.961832046508789,Starts
0:25/12/2019 16:42:50.049,3.850852, 4_Baseline, 435037.9421848, 1708, 2095.96850585938, 1518.68127441406, 664.0625, 90.3529434204102, -4.15798902511597, -3.56193900108337, 8.51944923400879, 0.870229005813599, -0.488549619913101, 0.824427485466003,Starts
0:25/12/2019 16:42:50.049,3.850901, 4_Baseline, 435037.9423894, 1709, 2093.96801757813, 1497.43591308594, 664.0625, 90.3529434204102, -4.16277694702148, -3.56193900108337, 8.55774974822998, 0.732824444770813, -0.274809151887894, 0.763358771800995,Starts
0:25/12/2019 16:42:50.060,3.861628, 4_Baseline, 435037.9442852, 1708, 2095.96850585938, 1479.12084960938, 664.0625, 90.3529434204102, -4.17474555969238, -3.5499701499939, 8.52902412414551, 0.977099239826202, -0.351145029067993, 0.885496199131012,Starts
0:25/12/2019 16:42:50.060,3.861665, 4_Baseline, 435037.944509, 1708, 2095.96850585938, 1459.34069824219, 664.0625, 90.3529434204102, -4.18192720413208, -3.5403950214386, 8.51705551147461, 0.916030526161194, -0.503816783428192, 0.702290058135986,Starts
0:25/12/2019 16:42:50.060,3.861691, 4_Baseline, 435037.9461345, 1708, 2095.96850585938, 1444.68859863281, 664.0625, 90.3529434204102, -4.1723518371582, -3.54757618904114, 8.54099369049072, 0.992366433143616, -0.488549619913101, 0.595419824123383,Starts
0:25/12/2019 16:42:50.082,3.884009, 4_Baseline, 435037.9690884, 1708, 2095.96850585938, 1432.96704101563, 664.0625, 90.3529434204102, -4.17474555969238, -3.5499701499939, 8.55296230316162, 0.7175572514534, -0.793893158435822, 0.748091578483582,Starts
0:25/12/2019 16:42:50.082,3.884074, 4_Baseline, 435037.9692269, 1708, 2095.96850585938, 1421.97802734375, 664.0625, 90.3529434204102, -4.15559530258179, -3.55954527854919, 8.54578113555908, 0.503816783428192, -0.748091578483582, 0.900763332843781,Starts
0:25/12/2019 16:42:50.082,3.884125, 4_Baseline, 435037.9730939, 1708, 2095.96850585938, 1413.18676757813, 664.0625, 90.3529434204102, -4.15798902511597, -3.53321361541748, 8.5553560256958, 0.824427485466003, -0.854961812496185, 0.854961812496185,Starts
0:25/12/2019 16:42:50.105,3.906747, 4_Baseline, 435037.9930897, 1708, 2095.96850585938, 1404.39562988281, 664.0625, 90.3529434204102, -4.1915020942688, -3.5403950214386, 8.5553560256958, 0.656488537788391, -0.656488537788391, 0.885496199131012,Starts
0:25/12/2019 16:42:50.105,3.906813, 4_Baseline, 435037.9950499, 1708, 2095.96850585938, 1394.13916015625, 664.0625, 90.3529434204102, -4.15798902511597, -3.55715131759644, 8.53859996795654, 0.595419824123383, -0.580152690410614, 1.02290081977844,Starts
0:25/12/2019 16:42:50.105,3.906874, 4_Baseline, 435037.9969713, 1708, 2095.96850585938, 1383.8828125, 664.0625, 90.3529434204102, -4.14841413497925, -3.55954527854919, 8.56493091583252, 0.564885497093201, -0.534351170063019, 0.870229005813599,Starts
0:25/12/2019 16:42:50.105,3.906924, 4_Baseline, 435037.9972368, 1708, 2095.96850585938, 1376.55676269531, 664.0625, 90.3529434204102, -4.17713928222656, -3.54518246650696, 8.55296230316162, 0.641221344470978, -0.687022924423218, 0.687022924423218,Starts
0:25/12/2019 16:42:50.150,3.951751, 4_Baseline, 435038.0330111, 1707, 2097.97290039063, 1369.96337890625, 664.0625, 90.3529434204102, -4.18671464920044, -3.56912016868591, 8.57929420471191, 0.137404575943947, -0.656488537788391, 0.702290058135986,Starts
0:25/12/2019 16:42:50.184,3.985853, 4_Baseline, 435038.0678092, 1708, 2095.96850585938, 1364.83520507813, 664.0625, 90.3529434204102, -4.18192720413208, -3.58108925819397, 8.53859996795654, 0.839694678783417, -0.580152690410614, 0.931297719478607,Starts
0:25/12/2019 16:42:50.185,3.985956, 4_Baseline, 435038.0679569, 1708, 2095.96850585938, 1361.90478515625, 664.0625, 90.3529434204102, -4.13644504547119, -3.56912016868591, 8.5433874130249, 0.549618303775787, -0.732824444770813, 0.854961812496185,Starts
0:25/12/2019 16:42:50.185,3.985997, 4_Baseline, 435038.0680917, 1708, 2095.96850585938, 1356.0439453125, 664.0625, 90.3529434204102, -4.14841413497925, -3.55475759506226, 8.56493091583252, 0.732824444770813, -0.641221344470978, 0.992366433143616,Starts
0:25/12/2019 16:42:50.185,3.986039, 4_Baseline, 435038.0699085, 1707, 2097.97290039063, 1350.91577148438, 664.0625, 90.3529434204102, -4.1603832244873, -3.52603220939636, 8.52902412414551, 0.335877865552902, -0.488549619913101, 0.687022924423218,Starts
0:25/12/2019 16:42:50.185,3.986076, 4_Baseline, 435038.0701451, 1707, 2097.97290039063, 1347.9853515625, 664.0625, 90.3529434204102, -4.17474555969238, -3.53800129890442, 8.56253719329834, 0.900763332843781, -0.7175572514534, 0.839694678783417,Starts
0:25/12/2019 16:42:50.185,3.98612, 4_Baseline, 435038.0717997, 1708, 2095.96850585938, 1349.45056152344, 664.0625, 90.3529434204102, -4.14362668991089, -3.53560733795166, 8.55296230316162, 0.47328245639801, -0.488549619913101, 0.641221344470978,Starts
0:25/12/2019 16:42:50.185,3.986159, 4_Baseline, 435038.0737967, 1708, 2095.96850585938, 1349.45056152344, 664.0625, 90.3529434204102, -4.14602041244507, -3.53560733795166, 8.56493091583252, 0.656488537788391, -0.610687017440796, 0.916030526161194,Starts
0:25/12/2019 16:42:50.185,3.986196, 4_Baseline, 435038.0757817, 1708, 2095.96850585938, 1353.84619140625, 664.0625, 90.3529434204102, -4.16517066955566, -3.55715131759644, 8.55056858062744, 0.80916029214859, -0.564885497093201, 0.580152690410614,Starts
0:25/12/2019 16:42:50.207,4.008523, 4_Baseline, 435038.0927632, 1706, 2099.98095703125, 1354.57873535156, 664.0625, 90.3529434204102, -4.16277694702148, -3.55475759506226, 8.57690048217773, 0.549618303775787, -0.610687017440796, 0.702290058135986,Starts
0:25/12/2019 16:42:50.207,4.008565, 4_Baseline, 435038.0948503, 1708, 2095.96850585938, 1358.24169921875, 664.0625, 90.3529434204102, -4.18192720413208, -3.54278874397278, 8.55774974822998, 0.488549619913101, -0.80916029214859, 0.366412222385406,Starts
0:25/12/2019 16:42:50.207,4.008593, 4_Baseline, 435038.0949895, 1707, 2097.97290039063, 1361.90478515625, 664.0625, 90.3529434204102, -4.19389581680298, -3.5403950214386, 8.55774974822998, 0.442748099565506, -0.519083976745605, 0.992366433143616,Starts
0:25/12/2019 16:42:50.230,4.031892, 4_Baseline, 435038.1177171, 1707, 2097.97290039063, 1367.765625, 664.0625, 90.3529434204102, -4.19628953933716, -3.54278874397278, 8.5553560256958, 0.427480906248093, -0.824427485466003, 0.687022924423218,Starts
0:25/12/2019 16:42:50.230,4.031956, 4_Baseline, 435038.1196649, 1706, 2099.98095703125, 1374.35900878906, 664.0625, 90.3529434204102, -4.16756439208984, -3.57151412963867, 8.54817485809326, 0.671755731105804, -0.534351170063019, 0.564885497093201,Starts
0:25/12/2019 16:42:50.230,4.03203, 4_Baseline, 435038.1216471, 1708, 2095.96850585938, 1378.02197265625, 664.0625, 90.3529434204102, -4.16517066955566, -3.56433272361755, 8.54817485809326, 0.396946579217911, -0.320610672235489, 0.564885497093201,Starts
0:25/12/2019 16:42:50.230,4.032094, 4_Baseline, 435038.1218858, 1708, 2095.96850585938, 1380.95239257813, 664.0625, 90.3529434204102, -4.1603832244873, -3.56672644615173, 8.54817485809326, 0.763358771800995, -0.595419824123383, 0.702290058135986,Starts
0:25/12/2019 16:42:50.253,4.054966, 4_Baseline, 435038.1447027, 1707, 2097.97290039063, 1386.08056640625, 664.0625, 90.3529434204102, -4.15320158004761, -3.53560733795166, 8.52902412414551, 0.763358771800995, -0.320610672235489, 0.396946579217911,Starts
0:25/12/2019 16:42:50.253,4.055014, 4_Baseline, 435038.1448335, 1707, 2097.97290039063, 1389.01098632813, 664.0625, 90.3529434204102, -4.1603832244873, -3.53560733795166, 8.55296230316162, 0.687022924423218, -0.442748099565506, 0.763358771800995,Starts
0:25/12/2019 16:42:50.253,4.055089, 4_Baseline, 435038.1449681, 1707, 2097.97290039063, 1390.47619628906, 664.0625, 90.3529434204102, -4.16517066955566, -3.54518246650696, 8.55056858062744, 0.564885497093201, -0.106870226562023, 0.625954210758209,Starts
0:25/12/2019 16:42:50.282,4.084591, 4_Baseline, 435038.1695872, 1707, 2097.97290039063, 1391.94140625, 664.0625, 90.3529434204102, -4.15320158004761, -3.52842617034912, 8.53859996795654, 0.641221344470978, -0.290076345205307, 0.610687017440796,Starts
0:25/12/2019 16:42:50.282,4.084633, 4_Baseline, 435038.1697154, 1707, 2097.97290039063, 1392.67395019531, 664.0625, 90.3529434204102, -4.15798902511597, -3.5308198928833, 8.57690048217773, 0.595419824123383, -0.595419824123383, 0.610687017440796,Starts
0:25/12/2019 16:42:50.283,4.084683, 4_Baseline, 435038.171663, 1707, 2097.97290039063, 1391.94140625, 664.0625, 90.3529434204102, -4.18671464920044, -3.53560733795166, 8.55296230316162, 0.580152690410614, -0.656488537788391, 0.335877865552902,Starts
0:25/12/2019 16:42:50.310,4.111989, 4_Baseline, 435038.1934785, 1707, 2097.97290039063, 1390.47619628906, 664.0625, 90.3529434204102, -4.16756439208984, -3.54278874397278, 8.56253719329834, 0.442748099565506, -0.854961812496185, 0.793893158435822,Starts
0:25/12/2019 16:42:50.310,4.112026, 4_Baseline, 435038.1956002, 1706, 2099.98095703125, 1391.20874023438, 664.0625, 90.3529434204102, -4.19389581680298, -3.5308198928833, 8.5553560256958, 0.305343508720398, -0.916030526161194, 0.549618303775787,Starts
0:25/12/2019 16:42:50.310,4.112051, 4_Baseline, 435038.1957422, 1708, 2095.96850585938, 1391.20874023438, 664.0625, 90.3529434204102, -4.1723518371582, -3.5403950214386, 8.55774974822998, 0.198473289608955, -0.793893158435822, 0.458015263080597,Starts
0:25/12/2019 16:42:50.333,4.134652, 4_Baseline, 435038.2193937, 1706, 2099.98095703125, 1390.47619628906, 632.8125, 94.814811706543, -4.16277694702148, -3.55236387252808, 8.53859996795654, 0.625954210758209, -0.916030526161194, 0.442748099565506,Starts
0:25/12/2019 16:42:50.333,4.134702, 4_Baseline, 435038.2233955, 1706, 2099.98095703125, 1388.27844238281, 632.8125, 94.814811706543, -4.16756439208984, -3.5499701499939, 8.54099369049072, 0.503816783428192, -0.977099239826202, 0.702290058135986,Starts
0:25/12/2019 16:42:50.333,4.134727, 4_Baseline, 435038.2254276, 1707, 2097.97290039063, 1389.01098632813, 632.8125, 94.814811706543, -4.18671464920044, -3.55954527854919, 8.53141784667969, 0.580152690410614, -0.992366433143616, 0.946564912796021,Starts
0:25/12/2019 16:42:50.355,4.156939, 4_Baseline, 435038.2443961, 1706, 2099.98095703125, 1388.27844238281, 632.8125, 94.814811706543, -4.14602041244507, -3.54518246650696, 8.5433874130249, 0.687022924423218, -1.11450386047363, 0.793893158435822,Starts
0:25/12/2019 16:42:50.355,4.157, 4_Baseline, 435038.2446451, 1706, 2099.98095703125, 1386.81323242188, 632.8125, 94.814811706543, -4.15798902511597, -3.5308198928833, 8.54817485809326, 0.641221344470978, -0.824427485466003, 0.839694678783417,Starts
0:25/12/2019 16:42:50.355,4.15705, 4_Baseline, 435038.2448881, 1706, 2099.98095703125, 1380.95239257813, 632.8125, 94.814811706543, -4.15798902511597, -3.5403950214386, 8.54578113555908, 0.458015263080597, -0.610687017440796, 0.610687017440796,Starts
0:25/12/2019 16:42:50.378,4.179436, 4_Baseline, 435038.2693213, 1706, 2099.98095703125, 1375.09155273438, 632.8125, 94.814811706543, -4.14602041244507, -3.5499701499939, 8.54099369049072, 0.213740453124046, -0.641221344470978, 0.625954210758209,Starts
0:25/12/2019 16:42:50.378,4.179528, 4_Baseline, 435038.2694475, 1707, 2097.97290039063, 1367.765625, 632.8125, 94.814811706543, -4.18432092666626, -3.55954527854919, 8.52663040161133, 0.412213742733002, -0.519083976745605, 0.656488537788391,Starts
0:25/12/2019 16:42:50.389,4.190521, 4_Baseline, 435038.2744283, 1707, 2097.97290039063, 1365.56774902344, 632.8125, 94.814811706543, -4.18910837173462, -3.55475759506226, 8.55056858062744, 0.47328245639801, -0.503816783428192, 0.732824444770813,Starts
0:25/12/2019 16:42:50.389,4.190639, 4_Baseline, 435038.276237, 1707, 2097.97290039063, 1365.56774902344, 632.8125, 94.814811706543, -4.19389581680298, -3.57390785217285, 8.53859996795654, 0.519083976745605, -0.580152690410614, 0.916030526161194,Starts
0:25/12/2019 16:42:50.402,4.203559, 4_Baseline, 435038.2943858, 1706, 2099.98095703125, 1369.96337890625, 632.8125, 94.814811706543, -4.17474555969238, -3.55715131759644, 8.55296230316162, 0.503816783428192, -0.687022924423218, 0.702290058135986,Starts
0:25/12/2019 16:42:50.402,4.203632, 4_Baseline, 435038.2946325, 1706, 2099.98095703125, 1373.62634277344, 632.8125, 94.814811706543, -4.18192720413208, -3.55236387252808, 8.56493091583252, 0.259541988372803, -0.992366433143616, 0.671755731105804,Starts
0:25/12/2019 16:42:50.443,4.245126, 4_Baseline, 435038.3181876, 1707, 2097.97290039063, 1372.1611328125, 632.8125, 94.814811706543, -4.20107698440552, -3.55475759506226, 8.5673246383667, 0.137404575943947, -0.946564912796021, 0.656488537788391,Starts
0:25/12/2019 16:42:50.443,4.245204, 4_Baseline, 435038.3202505, 1706, 2099.98095703125, 1369.23071289063, 632.8125, 94.814811706543, -4.17953300476074, -3.52842617034912, 8.53381252288818, 0.351145029067993, -1.03816795349121, 0.625954210758209,Starts
0:25/12/2019 16:42:50.444,4.245259, 4_Baseline, 435038.3204504, 1706, 2099.98095703125, 1364.1025390625, 632.8125, 94.814811706543, -4.16517066955566, -3.55475759506226, 8.53620624542236, 0.47328245639801, -0.885496199131012, 0.732824444770813,Starts
0:25/12/2019 16:42:50.444,4.245311, 4_Baseline, 435038.3231594, 1705, 2101.99291992188, 1358.97436523438, 632.8125, 94.814811706543, -4.18671464920044, -3.54278874397278, 8.55296230316162, 0.229007631540298, -1.06870234012604, 0.763358771800995,Starts
0:25/12/2019 16:42:50.456,4.257509, 4_Baseline, 435038.3461768, 1706, 2099.98095703125, 1356.0439453125, 632.8125, 94.814811706543, -4.14123296737671, -3.54518246650696, 8.53381252288818, 0.229007631540298, -0.961832046508789, 0.595419824123383,Starts
0:25/12/2019 16:42:50.456,4.257571, 4_Baseline, 435038.3463706, 1707, 2097.97290039063, 1356.0439453125, 632.8125, 94.814811706543, -4.16756439208984, -3.53560733795166, 8.52902412414551, 0.122137404978275, -0.931297719478607, 0.793893158435822,Starts
0:25/12/2019 16:42:50.478,4.279509, 4_Baseline, 435038.3680505, 1705, 2101.99291992188, 1356.0439453125, 632.8125, 94.814811706543, -4.15320158004761, -3.53321361541748, 8.5553560256958, 0.549618303775787, -0.977099239826202, 0.763358771800995,Starts
0:25/12/2019 16:42:50.478,4.279576, 4_Baseline, 435038.3699933, 1705, 2101.99291992188, 1357.50915527344, 632.8125, 94.814811706543, -4.1723518371582, -3.53560733795166, 8.52902412414551, 0.442748099565506, -0.916030526161194, 0.519083976745605,Starts
0:25/12/2019 16:42:50.478,4.279632, 4_Baseline, 435038.370237, 1706, 2099.98095703125, 1363.36999511719, 632.8125, 94.814811706543, -4.19389581680298, -3.55715131759644, 8.54817485809326, 0.0916030555963516, -1.34351146221161, 0.229007631540298,Starts
0:25/12/2019 16:42:50.522,4.323714, 4_Baseline, 435038.4100601, 1705, 2101.99291992188, 1364.83520507813, 632.8125, 94.814811706543, -4.18432092666626, -3.54757618904114, 8.54817485809326, 0.122137404978275, -1.23664116859436, 0.625954210758209,Starts
0:25/12/2019 16:42:50.522,4.32376, 4_Baseline, 435038.4102447, 1706, 2099.98095703125, 1361.90478515625, 632.8125, 94.814811706543, -4.17953300476074, -3.54518246650696, 8.55296230316162, -0.137404575943947, -1.46564888954163, 0.351145029067993,Starts
0:25/12/2019 16:42:50.534,4.335231, 4_Baseline, 435038.4280333, 1705, 2101.99291992188, 1361.90478515625, 632.8125, 94.814811706543, -4.17474555969238, -3.55715131759644, 8.56493091583252, 0.0458015277981758, -1.40458011627197, 0.198473289608955,Starts
0:25/12/2019 16:42:50.545,4.345971, 4_Baseline, 435038.4319296, 1706, 2099.98095703125, 1361.90478515625, 632.8125, 94.814811706543, -4.16277694702148, -3.55475759506226, 8.53859996795654, 0, -1.49618315696716, 0.351145029067993,Starts
0:25/12/2019 16:42:50.545,4.346035, 4_Baseline, 435038.4320677, 1705, 2101.99291992188, 1361.17211914063, 632.8125, 94.814811706543, -4.15559530258179, -3.56193900108337, 8.5433874130249, -0.0305343512445688, -1.66412210464478, 0.244274809956551,Starts
0:25/12/2019 16:42:50.545,4.346129, 4_Baseline, 435038.4359409, 1705, 2101.99291992188, 1362.63732910156, 632.8125, 94.814811706543, -4.15798902511597, -3.58108925819397, 8.5553560256958, -0.0763358771800995, -1.93893134593964, 0.47328245639801,Starts
0:25/12/2019 16:42:50.556,4.357491, 4_Baseline, 435038.4398299, 1705, 2101.99291992188, 1368.49816894531, 632.8125, 94.814811706543, -4.16277694702148, -3.56912016868591, 8.57450675964355, -0.0152671756222844, -1.3893129825592, 0.580152690410614,Starts
0:25/12/2019 16:42:50.556,4.357565, 4_Baseline, 435038.4438325, 1705, 2101.99291992188, 1382.41760253906, 632.8125, 94.814811706543, -4.12687015533447, -3.55236387252808, 8.55056858062744, -0.213740453124046, -1.41984736919403, 0.351145029067993,Starts
0:25/12/2019 16:42:50.556,4.357623, 4_Baseline, 435038.4440316, 1705, 2101.99291992188, 1400, 632.8125, 94.814811706543, -4.14841413497925, -3.5499701499939, 8.5553560256958, 0.183206111192703, -1.52671754360199, 0.595419824123383,Starts
0:25/12/2019 16:42:50.579,4.380035, 4_Baseline, 435038.46873, 1705, 2101.99291992188, 1422.71057128906, 632.8125, 94.814811706543, -4.13883924484253, -3.58348298072815, 8.53381252288818, -0.0763358771800995, -1.29770994186401, 0.152671754360199,Starts
0:25/12/2019 16:42:50.579,4.380103, 4_Baseline, 435038.4689311, 1706, 2099.98095703125, 1446.88647460938, 632.8125, 94.814811706543, -4.15080785751343, -3.58827042579651, 8.55056858062744, 0.0458015277981758, -0.992366433143616, 0.47328245639801,Starts
0:25/12/2019 16:42:50.596,4.398441, 4_Baseline, 435038.4738111, 1706, 2099.98095703125, 1470.32971191406, 632.8125, 94.814811706543, -4.15080785751343, -3.58587670326233, 8.54578113555908, 0.137404575943947, -1.40458011627197, 0.534351170063019,Starts
0:25/12/2019 16:42:50.596,4.3985, 4_Baseline, 435038.4741124, 1705, 2101.99291992188, 1493.04028320313, 632.8125, 94.814811706543, -4.13405132293701, -3.58827042579651, 8.54578113555908, 0.106870226562023, -1.54198467731476, 0.702290058135986,Starts
0:25/12/2019 16:42:50.596,4.398533, 4_Baseline, 435038.4757315, 1704, 2104.0087890625, 1515.7509765625, 632.8125, 94.814811706543, -4.1603832244873, -3.58108925819397, 8.54099369049072, 0.305343508720398, -1.19083964824677, 0.534351170063019,Starts
0:25/12/2019 16:42:50.601,4.402958, 4_Baseline, 435038.493711, 1704, 2104.0087890625, 1536.26379394531, 632.8125, 94.814811706543, -4.15320158004761, -3.58108925819397, 8.51944923400879, 0.152671754360199, -1.26717555522919, 0.396946579217911,Starts
0:25/12/2019 16:42:50.601,4.402994, 4_Baseline, 435038.4957247, 1706, 2099.98095703125, 1555.31140136719, 632.8125, 94.814811706543, -4.13165760040283, -3.58827042579651, 8.54817485809326, 0.229007631540298, -1.11450386047363, 0.305343508720398,Starts
0:25/12/2019 16:42:50.634,4.435929, 4_Baseline, 435038.5186807, 1705, 2101.99291992188, 1568.49816894531, 632.8125, 94.814811706543, -4.12687015533447, -3.57151412963867, 8.53620624542236, 0.335877865552902, -0.900763332843781, 0.427480906248093,Starts
0:25/12/2019 16:42:50.634,4.436009, 4_Baseline, 435038.5189377, 1705, 2101.99291992188, 1578.75463867188, 632.8125, 94.814811706543, -4.13165760040283, -3.59066438674927, 8.54099369049072, 0.47328245639801, -0.870229005813599, 0.961832046508789,Starts
0:25/12/2019 16:42:50.656,4.45798, 4_Baseline, 435038.5466039, 1705, 2101.99291992188, 1580.2197265625, 632.8125, 94.814811706543, -4.14841413497925, -3.59545183181763, 8.58408164978027, 0.305343508720398, -0.763358771800995, 0.519083976745605,Starts
0:25/12/2019 16:42:50.656,4.458017, 4_Baseline, 435038.5470852, 1706, 2099.98095703125, 1576.55676269531, 632.8125, 94.814811706543, -4.13165760040283, -3.60502696037292, 8.55774974822998, 0.305343508720398, -1.02290081977844, 0.641221344470978,Starts
0:25/12/2019 16:42:50.656,4.458043, 4_Baseline, 435038.5470909, 1705, 2101.99291992188, 1566.30041503906, 632.8125, 94.814811706543, -4.13883924484253, -3.58827042579651, 8.54817485809326, 0.213740453124046, -0.80916029214859, 0.442748099565506,Starts
0:25/12/2019 16:42:50.656,4.458098, 4_Baseline, 435038.5485698, 1704, 2104.0087890625, 1551.64831542969, 632.8125, 94.814811706543, -4.13405132293701, -3.60023927688599, 8.55056858062744, 0.442748099565506, -0.580152690410614, 0.564885497093201,Starts
0:25/12/2019 16:42:50.701,4.502792, 4_Baseline, 435038.5864485, 1704, 2104.0087890625, 1533.33337402344, 632.8125, 94.814811706543, -4.14362668991089, -3.57869529724121, 8.53859996795654, 0.610687017440796, -0.763358771800995, 0.7175572514534,Starts
0:25/12/2019 16:42:50.701,4.502829, 4_Baseline, 435038.5865969, 1705, 2101.99291992188, 1515.01831054688, 632.8125, 94.814811706543, -4.14841413497925, -3.56912016868591, 8.55056858062744, 0.244274809956551, -0.870229005813599, 0.687022924423218,Starts
0:25/12/2019 16:42:50.701,4.502854, 4_Baseline, 435038.5885964, 1704, 2104.0087890625, 1492.30773925781, 632.8125, 94.814811706543, -4.16517066955566, -3.57630157470703, 8.53859996795654, 0.549618303775787, -0.961832046508789, 0.763358771800995,Starts
0:25/12/2019 16:42:50.701,4.502887, 4_Baseline, 435038.5904152, 1705, 2101.99291992188, 1472.52746582031, 632.8125, 94.814811706543, -4.15559530258179, -3.57630157470703, 8.52184295654297, 0.641221344470978, -0.778625965118408, 0.580152690410614,Starts
0:25/12/2019 16:42:50.701,4.502911, 4_Baseline, 435038.5924932, 1704, 2104.0087890625, 1454.94506835938, 632.8125, 94.814811706543, -4.14602041244507, -3.55475759506226, 8.52663040161133, 0.412213742733002, -0.854961812496185, 0.80916029214859,Starts
0:25/12/2019 16:42:50.701,4.502936, 4_Baseline, 435038.5927335, 1705, 2101.99291992188, 1441.02563476563, 632.8125, 94.814811706543, -4.16277694702148, -3.55475759506226, 8.53381252288818, 0.503816783428192, -1.05343508720398, 0.534351170063019,Starts
0:25/12/2019 16:42:50.735,4.536681, 4_Baseline, 435038.6193728, 1704, 2104.0087890625, 1427.8388671875, 632.8125, 94.814811706543, -4.15798902511597, -3.56433272361755, 8.54817485809326, 0.167938932776451, -0.80916029214859, 0.854961812496185,Starts
0:25/12/2019 16:42:50.735,4.536723, 4_Baseline, 435038.6195321, 1704, 2104.0087890625, 1416.84985351563, 632.8125, 94.814811706543, -4.13405132293701, -3.56193900108337, 8.52663040161133, 0.625954210758209, -0.824427485466003, 0.519083976745605,Starts
0:25/12/2019 16:42:50.735,4.536753, 4_Baseline, 435038.621577, 1704, 2104.0087890625, 1405.12817382813, 632.8125, 94.814811706543, -4.12687015533447, -3.54518246650696, 8.5433874130249, 0.488549619913101, -1.09923660755157, 0.671755731105804,Starts
0:25/12/2019 16:42:50.735,4.536778, 4_Baseline, 435038.6233571, 1705, 2101.99291992188, 1394.87182617188, 632.8125, 94.814811706543, -4.17953300476074, -3.55715131759644, 8.54817485809326, 0.122137404978275, -1.16030538082123, 0.549618303775787,Starts
0:25/12/2019 16:42:50.753,4.554931, 4_Baseline, 435038.6442821, 1704, 2104.0087890625, 1386.08056640625, 632.8125, 94.814811706543, -4.1723518371582, -3.53560733795166, 8.56253719329834, 0.183206111192703, -0.977099239826202, 0.870229005813599,Starts
0:25/12/2019 16:42:50.753,4.554973, 4_Baseline, 435038.6444078, 1704, 2104.0087890625, 1379.48718261719, 632.8125, 94.814811706543, -4.1723518371582, -3.53800129890442, 8.5553560256958, 0.122137404978275, -1.37404584884644, 0.47328245639801,Starts
0:25/12/2019 16:42:50.753,4.554998, 4_Baseline, 435038.6463931, 1705, 2101.99291992188, 1372.1611328125, 632.8125, 94.814811706543, -4.17474555969238, -3.54757618904114, 8.54099369049072, 0.244274809956551, -1.28244268894196, 0.458015263080597,Starts
0:25/12/2019 16:42:50.753,4.555022, 4_Baseline, 435038.6466267, 1705, 2101.99291992188, 1364.1025390625, 632.8125, 94.814811706543, -4.16756439208984, -3.57151412963867, 8.54099369049072, 0.290076345205307, -1.46564888954163, 0.503816783428192,Starts
0:25/12/2019 16:42:50.779,4.580954, 4_Baseline, 435038.6702893, 1704, 2104.0087890625, 1356.77661132813, 632.8125, 94.814811706543, -4.17474555969238, -3.55236387252808, 8.52184295654297, 0.0152671756222844, -1.29770994186401, 0.641221344470978,Starts
0:25/12/2019 16:42:50.779,4.581056, 4_Baseline, 435038.6704578, 1704, 2104.0087890625, 1347.9853515625, 632.8125, 94.814811706543, -4.16756439208984, -3.56193900108337, 8.54817485809326, -0.0458015277981758, -1.7404580116272, 0.564885497093201,Starts
0:25/12/2019 16:42:50.779,4.581086, 4_Baseline, 435038.6721935, 1704, 2104.0087890625, 1339.9267578125, 632.8125, 94.814811706543, -4.16277694702148, -3.56433272361755, 8.55296230316162, 0.0305343512445688, -1.75572514533997, 0.274809151887894,Starts
0:25/12/2019 16:42:50.801,4.603013, 4_Baseline, 435038.6932072, 1704, 2104.0087890625, 1334.79858398438, 632.8125, 94.814811706543, -4.14602041244507, -3.5499701499939, 8.53620624542236, -0.0305343512445688, -1.66412210464478, 0.229007631540298,Starts
0:25/12/2019 16:42:50.813,4.614542, 4_Baseline, 435038.6971807, 1704, 2104.0087890625, 1331.8681640625, 632.8125, 94.814811706543, -4.16277694702148, -3.54518246650696, 8.55774974822998, 0.0763358771800995, -1.46564888954163, 0.458015263080597,Starts
0:25/12/2019 16:42:50.813,4.614586, 4_Baseline, 435038.6974076, 1704, 2104.0087890625, 1333.33337402344, 632.8125, 94.814811706543, -4.16277694702148, -3.56912016868591, 8.55056858062744, 0.122137404978275, -1.67938935756683, 0.427480906248093,Starts
0:25/12/2019 16:42:50.813,4.614611, 4_Baseline, 435038.6975948, 1703, 2106.0283203125, 1334.79858398438, 632.8125, 94.814811706543, -4.15320158004761, -3.56193900108337, 8.54817485809326, 0.0763358771800995, -1.78625953197479, 0.351145029067993,Starts
0:25/12/2019 16:42:50.824,4.625782, 4_Baseline, 435038.7182358, 1704, 2104.0087890625, 1336.26379394531, 632.8125, 94.814811706543, -4.13883924484253, -3.57151412963867, 8.5433874130249, 0.320610672235489, -1.34351146221161, 0.564885497093201,Starts
0:25/12/2019 16:42:50.836,4.637691, 4_Baseline, 435038.7221128, 1705, 2101.99291992188, 1339.19409179688, 632.8125, 94.814811706543, -4.15320158004761, -3.57151412963867, 8.53620624542236, 0.0763358771800995, -1.64885497093201, 0.381679385900497,Starts
0:25/12/2019 16:42:50.858,4.659815, 4_Baseline, 435038.7432542, 1704, 2104.0087890625, 1341.39196777344, 632.8125, 94.814811706543, -4.15080785751343, -3.56193900108337, 8.56493091583252, -0.0152671756222844, -1.48091602325439, 0.183206111192703,Starts
0:25/12/2019 16:42:50.858,4.659854, 4_Baseline, 435038.7449938, 1703, 2106.0283203125, 1342.12451171875, 632.8125, 94.814811706543, -4.12926387786865, -3.58587670326233, 8.55056858062744, 0.183206111192703, -1.49618315696716, 0.198473289608955,Starts
0:25/12/2019 16:42:50.858,4.659879, 4_Baseline, 435038.7452275, 1705, 2101.99291992188, 1345.05493164063, 632.8125, 94.814811706543, -4.13644504547119, -3.57630157470703, 8.52902412414551, 0.381679385900497, -1.175572514534, 0.793893158435822,Starts
0:25/12/2019 16:42:50.892,4.693935, 4_Baseline, 435038.7765599, 1703, 2106.0283203125, 1350.91577148438, 632.8125, 94.814811706543, -4.15559530258179, -3.60502696037292, 8.5553560256958, -0.106870226562023, -1.41984736919403, 0.412213742733002,Starts
0:25/12/2019 16:42:50.892,4.693979, 4_Baseline, 435038.7767868, 1703, 2106.0283203125, 1358.24169921875, 632.8125, 94.814811706543, -4.15320158004761, -3.59305810928345, 8.53620624542236, 0.0152671756222844, -1.86259543895721, 0.549618303775787,Starts
0:25/12/2019 16:42:50.892,4.694004, 4_Baseline, 435038.7807039, 1704, 2104.0087890625, 1365.56774902344, 632.8125, 94.814811706543, -4.15320158004761, -3.60023927688599, 8.53381252288818, 0.305343508720398, -1.45038163661957, 0.335877865552902,Starts
0:25/12/2019 16:42:50.911,4.712735, 4_Baseline, 435038.7925614, 1704, 2104.0087890625, 1371.42858886719, 632.8125, 94.814811706543, -4.16756439208984, -3.57869529724121, 8.52663040161133, 0.122137404978275, -1.37404584884644, 0.702290058135986,Starts
0:25/12/2019 16:42:50.911,4.712788, 4_Baseline, 435038.7927641, 1704, 2104.0087890625, 1373.62634277344, 632.8125, 94.814811706543, -4.15559530258179, -3.58108925819397, 8.53620624542236, 0.0610687024891377, -1.28244268894196, 0.305343508720398,Starts
0:25/12/2019 16:42:50.911,4.712868, 4_Baseline, 435038.8006042, 1704, 2104.0087890625, 1371.42858886719, 632.8125, 94.814811706543, -4.15559530258179, -3.57869529724121, 8.55056858062744, 0, -1.6946564912796, 0.427480906248093,Starts
0:25/12/2019 16:42:50.911,4.712915, 4_Baseline, 435038.8008174, 1704, 2104.0087890625, 1369.96337890625, 632.8125, 94.814811706543, -4.17713928222656, -3.57869529724121, 8.55056858062744, -0.0152671756222844, -1.6946564912796, 0.549618303775787,Starts
0:25/12/2019 16:42:50.911,4.712961, 4_Baseline, 435038.8025188, 1704, 2104.0087890625, 1370.69592285156, 632.8125, 94.814811706543, -4.13883924484253, -3.57630157470703, 8.55774974822998, 0.106870226562023, -1.7404580116272, 0.458015263080597,Starts
0:25/12/2019 16:42:50.925,4.726885, 4_Baseline, 435038.818514, 1704, 2104.0087890625, 1370.69592285156, 632.8125, 94.814811706543, -4.13883924484253, -3.56433272361755, 8.53141784667969, -0.0610687024891377, -1.77099239826202, 0.290076345205307,Starts
0:25/12/2019 16:42:50.936,4.738057, 4_Baseline, 435038.8206694, 1705, 2101.99291992188, 1373.62634277344, 632.8125, 94.814811706543, -4.13165760040283, -3.57869529724121, 8.56493091583252, -0.106870226562023, -1.57251906394959, 0.366412222385406,Starts
0:25/12/2019 16:42:50.936,4.738112, 4_Baseline, 435038.8264167, 1703, 2106.0283203125, 1378.02197265625, 625, 96, -4.14602041244507, -3.58348298072815, 8.53620624542236, 0.0610687024891377, -1.52671754360199, 0.366412222385406,Starts
0:25/12/2019 16:42:50.958,4.760476, 4_Baseline, 435038.8444347, 1704, 2104.0087890625, 1383.8828125, 625, 96, -4.15320158004761, -3.58108925819397, 8.55056858062744, -0.0916030555963516, -1.61832058429718, 0.442748099565506,Starts
0:25/12/2019 16:42:50.959,4.760536, 4_Baseline, 435038.8445836, 1704, 2104.0087890625, 1386.08056640625, 625, 96, -4.12208271026611, -3.57869529724121, 8.55774974822998, 0.0916030555963516, -1.31297707557678, 0.305343508720398,Starts
0:25/12/2019 16:42:50.982,4.783446, 4_Baseline, 435038.8693499, 1704, 2104.0087890625, 1388.27844238281, 625, 96, -4.12687015533447, -3.58108925819397, 8.53620624542236, 0.198473289608955, -1.3893129825592, 0.305343508720398,Starts
0:25/12/2019 16:42:50.982,4.783506, 4_Baseline, 435038.8713475, 1703, 2106.0283203125, 1389.01098632813, 625, 96, -4.10053873062134, -3.58587670326233, 8.52663040161133, 0.122137404978275, -1.00763356685638, 0.442748099565506,Starts
0:25/12/2019 16:42:50.982,4.783536, 4_Baseline, 435038.8733248, 1704, 2104.0087890625, 1388.27844238281, 625, 96, -4.10771989822388, -3.60023927688599, 8.54817485809326, 0.0763358771800995, -1.55725193023682, 0.503816783428192,Starts
0:25/12/2019 16:42:51.006,4.80755, 4_Baseline, 435038.8952797, 1704, 2104.0087890625, 1388.27844238281, 625, 96, -4.13165760040283, -3.59784555435181, 8.54578113555908, 0.198473289608955, -1.26717555522919, 0.442748099565506,Starts
0:25/12/2019 16:42:51.006,4.80759, 4_Baseline, 435038.8954873, 1704, 2104.0087890625, 1387.54577636719, 625, 96, -4.12687015533447, -3.60023927688599, 8.53381252288818, 0.427480906248093, -1.45038163661957, 0.458015263080597,Starts
0:25/12/2019 16:42:51.036,4.838219, 4_Baseline, 435038.9204179, 1704, 2104.0087890625, 1385.34802246094, 625, 96, -4.11250734329224, -3.60023927688599, 8.53141784667969, 0.137404575943947, -1.28244268894196, 0.351145029067993,Starts
0:25/12/2019 16:42:51.037,4.838275, 4_Baseline, 435038.9207006, 1705, 2101.99291992188, 1383.15014648438, 625, 96, -4.13644504547119, -3.57630157470703, 8.55296230316162, 0.351145029067993, -1.55725193023682, 0.47328245639801,Starts
0:25/12/2019 16:42:51.037,4.838318, 4_Baseline, 435038.9210017, 1704, 2104.0087890625, 1381.68493652344, 625, 96, -4.11011362075806, -3.57630157470703, 8.5433874130249, 0.503816783428192, -1.03816795349121, 0.351145029067993,Starts
0:25/12/2019 16:42:51.037,4.838344, 4_Baseline, 435038.9226684, 1703, 2106.0283203125, 1379.48718261719, 625, 96, -4.10771989822388, -3.57630157470703, 8.5553560256958, 0.305343508720398, -0.946564912796021, 0.595419824123383,Starts
0:25/12/2019 16:42:51.037,4.838367, 4_Baseline, 435038.9228016, 1704, 2104.0087890625, 1378.75463867188, 625, 96, -4.12447643280029, -3.60023927688599, 8.56253719329834, 0.381679385900497, -0.839694678783417, 0.80916029214859,Starts
0:25/12/2019 16:42:51.037,4.838425, 4_Baseline, 435038.924208, 1704, 2104.0087890625, 1376.55676269531, 625, 96, -4.10053873062134, -3.59545183181763, 8.56014347076416, 0.335877865552902, -0.977099239826202, 0.610687017440796,Starts
0:25/12/2019 16:42:51.066,4.867819, 4_Baseline, 435038.9441519, 1703, 2106.0283203125, 1371.42858886719, 625, 96, -4.13644504547119, -3.60502696037292, 8.56014347076416, 0.396946579217911, -1.02290081977844, 0.519083976745605,Starts
0:25/12/2019 16:42:51.081,4.882727, 4_Baseline, 435038.9700451, 1704, 2104.0087890625, 1366.30041503906, 625, 96, -4.11729526519775, -3.59305810928345, 8.5433874130249, 0.534351170063019, -0.961832046508789, 0.610687017440796,Starts
0:25/12/2019 16:42:51.081,4.882763, 4_Baseline, 435038.9702325, 1703, 2106.0283203125, 1361.17211914063, 625, 96, -4.14362668991089, -3.58348298072815, 8.54817485809326, 0.290076345205307, -0.80916029214859, 0.702290058135986,Starts
0:25/12/2019 16:42:51.081,4.882796, 4_Baseline, 435038.9729325, 1704, 2104.0087890625, 1356.77661132813, 625, 96, -4.13883924484253, -3.58587670326233, 8.56971836090088, 0.366412222385406, -0.946564912796021, 0.625954210758209,Starts
0:25/12/2019 16:42:51.081,4.882821, 4_Baseline, 435038.9730657, 1703, 2106.0283203125, 1354.57873535156, 625, 96, -4.12926387786865, -3.59545183181763, 8.54099369049072, 0.0458015277981758, -0.778625965118408, 0.396946579217911,Starts
0:25/12/2019 16:42:51.093,4.894503, 4_Baseline, 435038.976994, 1704, 2104.0087890625, 1353.84619140625, 625, 96, -4.14123296737671, -3.59545183181763, 8.53859996795654, 0.381679385900497, -0.687022924423218, 0.610687017440796,Starts
0:25/12/2019 16:42:51.104,4.905371, 4_Baseline, 435038.9939509, 1703, 2106.0283203125, 1349.45056152344, 625, 96, -4.13405132293701, -3.59066438674927, 8.53620624542236, 0.183206111192703, -0.7175572514534, 0.519083976745605,Starts
0:25/12/2019 16:42:51.104,4.90542, 4_Baseline, 435038.9968874, 1704, 2104.0087890625, 1349.45056152344, 625, 96, -4.13883924484253, -3.59066438674927, 8.53141784667969, 0.47328245639801, -0.7175572514534, 0.442748099565506,Starts
0:25/12/2019 16:42:51.138,4.939455, 4_Baseline, 435039.0208578, 1703, 2106.0283203125, 1350.18310546875, 625, 96, -4.14841413497925, -3.60981440544128, 8.54817485809326, 0.519083976745605, -0.931297719478607, 0.47328245639801,Starts
0:25/12/2019 16:42:51.138,4.939525, 4_Baseline, 435039.0210538, 1703, 2106.0283203125, 1356.0439453125, 625, 96, -4.13883924484253, -3.59784555435181, 8.54099369049072, 0.534351170063019, -0.931297719478607, 0.137404575943947,Starts
0:25/12/2019 16:42:51.138,4.939582, 4_Baseline, 435039.0212723, 1703, 2106.0283203125, 1363.36999511719, 625, 96, -4.16517066955566, -3.60981440544128, 8.54817485809326, 0.335877865552902, -1.05343508720398, 0.351145029067993,Starts
0:25/12/2019 16:42:51.138,4.939639, 4_Baseline, 435039.0228514, 1704, 2104.0087890625, 1371.42858886719, 625, 96, -4.12926387786865, -3.60023927688599, 8.54578113555908, 0.412213742733002, -1.35877859592438, 0.259541988372803,Starts
0:25/12/2019 16:42:51.160,4.961231, 4_Baseline, 435039.0428152, 1703, 2106.0283203125, 1377.28942871094, 625, 96, -4.13883924484253, -3.59545183181763, 8.55774974822998, 0.366412222385406, -1.02290081977844, 0.290076345205307,Starts
0:25/12/2019 16:42:51.160,4.961299, 4_Baseline, 435039.0469604, 1703, 2106.0283203125, 1383.8828125, 625, 96, -4.14602041244507, -3.58827042579651, 8.5673246383667, 0.229007631540298, -1.26717555522919, 0.335877865552902,Starts
0:25/12/2019 16:42:51.160,4.961358, 4_Baseline, 435039.0488038, 1703, 2106.0283203125, 1389.01098632813, 625, 96, -4.12926387786865, -3.58587670326233, 8.56014347076416, 0.396946579217911, -1.26717555522919, 0.244274809956551,Starts
0:25/12/2019 16:42:51.182,4.983875, 4_Baseline, 435039.0687028, 1704, 2104.0087890625, 1400, 625, 96, -4.13644504547119, -3.58587670326233, 8.52423667907715, 0.167938932776451, -1.03816795349121, 0.427480906248093,Starts
0:25/12/2019 16:42:51.182,4.98395, 4_Baseline, 435039.0707219, 1703, 2106.0283203125, 1410.25646972656, 625, 96, -4.11490106582642, -3.6074206829071, 8.55056858062744, 0.305343508720398, -1.26717555522919, 0.366412222385406,Starts
0:25/12/2019 16:42:51.182,4.983977, 4_Baseline, 435039.0726792, 1704, 2104.0087890625, 1424.90844726563, 625, 96, -4.13883924484253, -3.61220836639404, 8.55774974822998, 0.381679385900497, -1.14503812789917, 0.305343508720398,Starts
0:25/12/2019 16:42:51.192,4.994465, 4_Baseline, 435039.0776892, 1704, 2104.0087890625, 1439.56042480469, 625, 96, -4.12208271026611, -3.61460208892822, 8.54817485809326, 0.47328245639801, -1.175572514534, 0.47328245639801,Starts
0:25/12/2019 16:42:51.204,5.006496, 4_Baseline, 435039.0936483, 1705, 2101.99291992188, 1456.41027832031, 625, 96, -4.09096336364746, -3.59066438674927, 8.54099369049072, 0.488549619913101, -1.02290081977844, 0.427480906248093,Starts
0:25/12/2019 16:42:51.204,5.006533, 4_Baseline, 435039.0956274, 1703, 2106.0283203125, 1473.99267578125, 625, 96, -4.11250734329224, -3.61938953399658, 8.51466178894043, 0.534351170063019, -0.778625965118408, 0.381679385900497,Starts
0:25/12/2019 16:42:51.204,5.006566, 4_Baseline, 435039.0976653, 1704, 2104.0087890625, 1492.30773925781, 625, 96, -4.11250734329224, -3.61220836639404, 8.53859996795654, 0.656488537788391, -0.916030526161194, 0.610687017440796,Starts
0:25/12/2019 16:42:51.246,5.04766, 4_Baseline, 435039.1375734, 1702, 2108.05200195313, 1508.42492675781, 625, 96, -4.11729526519775, -3.62178325653076, 8.51944923400879, 0.702290058135986, -0.931297719478607, 0.549618303775787,Starts
0:25/12/2019 16:42:51.257,5.058986, 4_Baseline, 435039.1515137, 1704, 2104.0087890625, 1528.93774414063, 625, 96, -4.08856964111328, -3.63135838508606, 8.53381252288818, 0.931297719478607, -0.656488537788391, 0.824427485466003,Starts
0:25/12/2019 16:42:51.280,5.081618, 4_Baseline, 435039.1654552, 1703, 2106.0283203125, 1544.32238769531, 625, 96, -4.11011362075806, -3.62417721748352, 8.52663040161133, 1.09923660755157, -0.595419824123383, 0.885496199131012,Starts
0:25/12/2019 16:42:51.280,5.081662, 4_Baseline, 435039.1656497, 1703, 2106.0283203125, 1555.31140136719, 625, 96, -4.12687015533447, -3.61220836639404, 8.53859996795654, 0.870229005813599, -0.458015263080597, 0.916030526161194,Starts
0:25/12/2019 16:42:51.280,5.081689, 4_Baseline, 435039.1675942, 1703, 2106.0283203125, 1562.63732910156, 625, 96, -4.11490106582642, -3.60502696037292, 8.53859996795654, 0.47328245639801, -0.259541988372803, 1.09923660755157,Starts
0:25/12/2019 16:42:51.280,5.081713, 4_Baseline, 435039.167744, 1704, 2104.0087890625, 1564.1025390625, 625, 96, -4.12926387786865, -3.61460208892822, 8.51705551147461, 0.900763332843781, -0.396946579217911, 0.656488537788391,Starts
0:25/12/2019 16:42:51.280,5.081739, 4_Baseline, 435039.1694396, 1703, 2106.0283203125, 1561.17211914063, 625, 96, -4.11968898773193, -3.6074206829071, 8.54578113555908, 0.961832046508789, -0.106870226562023, 0.793893158435822,Starts
0:25/12/2019 16:42:51.280,5.081766, 4_Baseline, 435039.1704866, 1703, 2106.0283203125, 1555.31140136719, 625, 96, -4.14602041244507, -3.61220836639404, 8.5553560256958, 0.992366433143616, -0.259541988372803, 1.05343508720398,Starts
0:25/12/2019 16:42:51.302,5.104122, 4_Baseline, 435039.1944755, 1703, 2106.0283203125, 1545.05493164063, 625, 96, -4.13165760040283, -3.59784555435181, 8.53859996795654, 0.687022924423218, -0.595419824123383, 0.839694678783417,Starts
0:25/12/2019 16:42:51.302,5.104161, 4_Baseline, 435039.1945149, 1704, 2104.0087890625, 1528.93774414063, 625, 96, -4.15320158004761, -3.60023927688599, 8.52423667907715, 0.793893158435822, -0.412213742733002, 0.916030526161194,Starts
0:25/12/2019 16:42:51.302,5.104188, 4_Baseline, 435039.1964914, 1704, 2104.0087890625, 1510.62268066406, 625, 96, -4.14841413497925, -3.61938953399658, 8.55056858062744, 0.80916029214859, -0.106870226562023, 0.992366433143616,Starts
0:25/12/2019 16:42:51.302,5.104213, 4_Baseline, 435039.1966197, 1704, 2104.0087890625, 1494.50549316406, 625, 96, -4.13165760040283, -3.59784555435181, 8.53620624542236, 0.824427485466003, -0.519083976745605, 1.00763356685638,Starts
0:25/12/2019 16:42:51.336,5.137517, 4_Baseline, 435039.2273793, 1703, 2106.0283203125, 1476.92309570313, 625, 96, -4.14841413497925, -3.60023927688599, 8.52663040161133, 0.748091578483582, 0.137404575943947, 0.702290058135986,Starts
0:25/12/2019 16:42:51.336,5.137601, 4_Baseline, 435039.229293, 1703, 2106.0283203125, 1463.73620605469, 625, 96, -4.11490106582642, -3.57630157470703, 8.54817485809326, 1.29770994186401, -0.0916030555963516, 0.931297719478607,Starts
0:25/12/2019 16:42:51.336,5.137664, 4_Baseline, 435039.2294901, 1703, 2106.0283203125, 1452.0146484375, 625, 96, -4.12208271026611, -3.59545183181763, 8.5553560256958, 0.931297719478607, -0.0305343512445688, 0.931297719478607,Starts
0:25/12/2019 16:42:51.336,5.137725, 4_Baseline, 435039.2312168, 1703, 2106.0283203125, 1441.75830078125, 625, 96, -4.13165760040283, -3.58827042579651, 8.53859996795654, 0.763358771800995, 0, 0.916030526161194,Starts
0:25/12/2019 16:42:51.346,5.148302, 4_Baseline, 435039.2342289, 1703, 2106.0283203125, 1430.76928710938, 625, 96, -4.14602041244507, -3.60502696037292, 8.52663040161133, 0.839694678783417, -0.305343508720398, 0.610687017440796,Starts
0:25/12/2019 16:42:51.358,5.159716, 4_Baseline, 435039.2482441, 1703, 2106.0283203125, 1422.71057128906, 625, 96, -4.15559530258179, -3.60263323783875, 8.5673246383667, 0.961832046508789, -0.458015263080597, 1.08396947383881,Starts
0:25/12/2019 16:42:51.377,5.178473, 4_Baseline, 435039.2681826, 1703, 2106.0283203125, 1410.98901367188, 625, 96, -4.14602041244507, -3.60502696037292, 8.55774974822998, 0.793893158435822, -0.351145029067993, 0.824427485466003,Starts
0:25/12/2019 16:42:51.377,5.178505, 4_Baseline, 435039.2682721, 1704, 2104.0087890625, 1400, 625, 96, -4.14602041244507, -3.59066438674927, 8.56014347076416, 0.854961812496185, -0.381679385900497, 0.564885497093201,Starts
0:25/12/2019 16:42:51.377,5.178531, 4_Baseline, 435039.270284, 1702, 2108.05200195313, 1389.74353027344, 625, 96, -4.15559530258179, -3.57390785217285, 8.56253719329834, 0.687022924423218, -0.412213742733002, 0.870229005813599,Starts
0:25/12/2019 16:42:51.381,5.182934, 4_Baseline, 435039.2720863, 1703, 2106.0283203125, 1383.15014648438, 625, 96, -4.16517066955566, -3.59305810928345, 8.57211208343506, 0.595419824123383, -0.595419824123383, 0.839694678783417,Starts
0:25/12/2019 16:42:51.402,5.204061, 4_Baseline, 435039.294059, 1702, 2108.05200195313, 1377.28942871094, 625, 96, -4.12926387786865, -3.57869529724121, 8.5433874130249, 1.05343508720398, -0.870229005813599, 0.885496199131012,Starts
0:25/12/2019 16:42:51.402,5.204099, 4_Baseline, 435039.2942647, 1702, 2108.05200195313, 1371.42858886719, 625, 96, -4.13165760040283, -3.56193900108337, 8.5433874130249, 0.900763332843781, -0.427480906248093, 0.977099239826202,Starts
0:25/12/2019 16:42:51.425,5.226589, 4_Baseline, 435039.3190377, 1702, 2108.05200195313, 1364.83520507813, 625, 96, -4.11729526519775, -3.58108925819397, 8.53859996795654, 0.870229005813599, -0.549618303775787, 0.80916029214859,Starts
0:25/12/2019 16:42:51.425,5.226631, 4_Baseline, 435039.3191468, 1703, 2106.0283203125, 1362.63732910156, 625, 96, -4.11729526519775, -3.56672644615173, 8.54099369049072, 1.00763356685638, -0.47328245639801, 0.80916029214859,Starts
0:25/12/2019 16:42:51.459,5.26044, 4_Baseline, 435039.3440219, 1703, 2106.0283203125, 1360.43957519531, 625, 96, -4.10771989822388, -3.56193900108337, 8.56971836090088, 0.854961812496185, -0.335877865552902, 1.08396947383881,Starts
0:25/12/2019 16:42:51.459,5.260478, 4_Baseline, 435039.346952, 1702, 2108.05200195313, 1358.97436523438, 625, 96, -4.11729526519775, -3.56433272361755, 8.55056858062744, 0.824427485466003, -0.366412222385406, 0.778625965118408,Starts
0:25/12/2019 16:42:51.459,5.260505, 4_Baseline, 435039.3470538, 1702, 2108.05200195313, 1357.50915527344, 625, 96, -4.11011362075806, -3.56912016868591, 8.56253719329834, 1.09923660755157, -0.198473289608955, 0.870229005813599,Starts
0:25/12/2019 16:42:51.459,5.260561, 4_Baseline, 435039.3472359, 1703, 2106.0283203125, 1359.70690917969, 625, 96, -4.11729526519775, -3.57390785217285, 8.55774974822998, 1.1297709941864, -0.0763358771800995, 0.870229005813599,Starts
0:25/12/2019 16:42:51.459,5.26059, 4_Baseline, 435039.3489214, 1702, 2108.05200195313, 1360.43957519531, 625, 96, -4.11968898773193, -3.56912016868591, 8.52902412414551, 1.02290081977844, -0.122137404978275, 0.885496199131012,Starts
0:25/12/2019 16:42:51.459,5.260614, 4_Baseline, 435039.3508983, 1702, 2108.05200195313, 1361.17211914063, 625, 96, -4.14123296737671, -3.58348298072815, 8.53141784667969, 1.14503812789917, 0.0610687024891377, 0.992366433143616,Starts
0:25/12/2019 16:42:51.481,5.282522, 4_Baseline, 435039.3680425, 1702, 2108.05200195313, 1362.63732910156, 625, 96, -4.14123296737671, -3.60263323783875, 8.53859996795654, 1.26717555522919, -0.106870226562023, 0.900763332843781,Starts
0:25/12/2019 16:42:51.481,5.282561, 4_Baseline, 435039.3709154, 1702, 2108.05200195313, 1366.30041503906, 625, 96, -4.16277694702148, -3.60981440544128, 8.52423667907715, 0.931297719478607, -0.137404575943947, 0.946564912796021,Starts
0:25/12/2019 16:42:51.503,5.304611, 4_Baseline, 435039.3928527, 1702, 2108.05200195313, 1373.62634277344, 625, 96, -4.15080785751343, -3.59784555435181, 8.54099369049072, 1.1297709941864, -0.183206111192703, 1.09923660755157,Starts
0:25/12/2019 16:42:51.503,5.304646, 4_Baseline, 435039.3929667, 1701, 2110.07958984375, 1377.28942871094, 625, 96, -4.17953300476074, -3.60263323783875, 8.54817485809326, 1.14503812789917, -0.671755731105804, 1.14503812789917,Starts
0:25/12/2019 16:42:51.503,5.30467, 4_Baseline, 435039.3949653, 1702, 2108.05200195313, 1380.95239257813, 625, 96, -4.15080785751343, -3.59784555435181, 8.52423667907715, 1.11450386047363, -0.519083976745605, 0.870229005813599,Starts
0:25/12/2019 16:42:51.503,5.304694, 4_Baseline, 435039.3968301, 1703, 2106.0283203125, 1385.34802246094, 625, 96, -4.15320158004761, -3.56433272361755, 8.55056858062744, 0.900763332843781, -0.458015263080597, 1.00763356685638,Starts
0:25/12/2019 16:42:51.532,5.334028, 4_Baseline, 435039.4177951, 1702, 2108.05200195313, 1388.27844238281, 625, 96, -4.13165760040283, -3.60502696037292, 8.55056858062744, 1.1297709941864, -0.488549619913101, 1.08396947383881,Starts
0:25/12/2019 16:42:51.532,5.334065, 4_Baseline, 435039.4198186, 1702, 2108.05200195313, 1390.47619628906, 625, 96, -4.18910837173462, -3.58348298072815, 8.54578113555908, 1.03816795349121, -0.488549619913101, 0.824427485466003,Starts
0:25/12/2019 16:42:51.558,5.360606, 4_Baseline, 435039.4447381, 1702, 2108.05200195313, 1390.47619628906, 625, 96, -4.15559530258179, -3.58827042579651, 8.55296230316162, 1.23664116859436, -0.580152690410614, 0.687022924423218,Starts
0:25/12/2019 16:42:51.558,5.360642, 4_Baseline, 435039.4467053, 1702, 2108.05200195313, 1391.94140625, 625, 96, -4.16277694702148, -3.57869529724121, 8.55296230316162, 0.778625965118408, -0.47328245639801, 0.900763332843781,Starts
0:25/12/2019 16:42:51.558,5.360676, 4_Baseline, 435039.4468922, 1703, 2106.0283203125, 1390.47619628906, 625, 96, -4.15798902511597, -3.58587670326233, 8.53859996795654, 0.900763332843781, -0.503816783428192, 0.656488537788391,Starts
0:25/12/2019 16:42:51.570,5.371889, 4_Baseline, 435039.4546847, 1703, 2106.0283203125, 1388.27844238281, 625, 96, -4.17474555969238, -3.59784555435181, 8.54099369049072, 0.977099239826202, -0.427480906248093, 0.778625965118408,Starts
0:25/12/2019 16:42:51.570,5.371946, 4_Baseline, 435039.4567303, 1702, 2108.05200195313, 1386.81323242188, 625, 96, -4.16756439208984, -3.57869529724121, 8.5433874130249, 1.09923660755157, -0.839694678783417, 0.80916029214859,Starts
0:25/12/2019 16:42:51.581,5.382752, 4_Baseline, 435039.4706482, 1703, 2106.0283203125, 1384.61535644531, 632.8125, 94.814811706543, -4.1603832244873, -3.59784555435181, 8.55296230316162, 0.946564912796021, -0.732824444770813, 0.641221344470978,Starts
0:25/12/2019 16:42:51.581,5.382792, 4_Baseline, 435039.4725544, 1703, 2106.0283203125, 1382.41760253906, 632.8125, 94.814811706543, -4.15798902511597, -3.58827042579651, 8.54817485809326, 1.06870234012604, -0.564885497093201, 0.977099239826202,Starts
0:25/12/2019 16:42:51.638,5.439962, 4_Baseline, 435039.5244432, 1703, 2106.0283203125, 1381.68493652344, 632.8125, 94.814811706543, -4.14123296737671, -3.59066438674927, 8.52423667907715, 0.946564912796021, -0.7175572514534, 0.946564912796021,Starts
0:25/12/2019 16:42:51.638,5.440008, 4_Baseline, 435039.5246075, 1702, 2108.05200195313, 1380.2197265625, 632.8125, 94.814811706543, -4.13405132293701, -3.56912016868591, 8.54099369049072, 1.00763356685638, -0.732824444770813, 0.702290058135986,Starts
0:25/12/2019 16:42:51.638,5.440035, 4_Baseline, 435039.5264116, 1702, 2108.05200195313, 1378.75463867188, 632.8125, 94.814811706543, -4.1603832244873, -3.59305810928345, 8.53620624542236, 0.931297719478607, -0.610687017440796, 0.824427485466003,Starts
0:25/12/2019 16:42:51.638,5.440059, 4_Baseline, 435039.5304608, 1702, 2108.05200195313, 1374.35900878906, 632.8125, 94.814811706543, -4.13644504547119, -3.57390785217285, 8.53381252288818, 0.80916029214859, -0.931297719478607, 0.870229005813599,Starts
0:25/12/2019 16:42:51.638,5.440094, 4_Baseline, 435039.5305994, 1701, 2110.07958984375, 1368.49816894531, 632.8125, 94.814811706543, -4.14362668991089, -3.58108925819397, 8.52663040161133, 0.854961812496185, -0.580152690410614, 0.671755731105804,Starts
0:25/12/2019 16:42:51.649,5.45118, 4_Baseline, 435039.5348708, 1701, 2110.07958984375, 1365.56774902344, 632.8125, 94.814811706543, -4.1723518371582, -3.57390785217285, 8.53620624542236, 0.992366433143616, -0.641221344470978, 0.687022924423218,Starts
0:25/12/2019 16:42:51.649,5.451238, 4_Baseline, 435039.5354916, 1702, 2108.05200195313, 1361.90478515625, 632.8125, 94.814811706543, -4.16995811462402, -3.58108925819397, 8.5433874130249, 1.02290081977844, -0.839694678783417, 0.748091578483582,Starts
0:25/12/2019 16:42:51.649,5.451279, 4_Baseline, 435039.5354978, 1702, 2108.05200195313, 1360.43957519531, 632.8125, 94.814811706543, -4.15080785751343, -3.58348298072815, 8.53141784667969, 0.885496199131012, -0.47328245639801, 0.748091578483582,Starts
0:25/12/2019 16:42:51.649,5.451331, 4_Baseline, 435039.5435258, 1702, 2108.05200195313, 1361.17211914063, 632.8125, 94.814811706543, -4.13883924484253, -3.56912016868591, 8.54578113555908, 1.08396947383881, -0.366412222385406, 0.778625965118408,Starts
0:25/12/2019 16:42:51.691,5.492698, 4_Baseline, 435039.5684385, 1702, 2108.05200195313, 1363.36999511719, 632.8125, 94.814811706543, -4.15080785751343, -3.57630157470703, 8.56493091583252, 0.992366433143616, -0.152671754360199, 0.870229005813599,Starts
0:25/12/2019 16:42:51.691,5.49273, 4_Baseline, 435039.5685681, 1702, 2108.05200195313, 1366.30041503906, 632.8125, 94.814811706543, -4.15320158004761, -3.58108925819397, 8.55056858062744, 1.175572514534, -0.244274809956551, 0.870229005813599,Starts
0:25/12/2019 16:42:51.691,5.492755, 4_Baseline, 435039.5694511, 1701, 2110.07958984375, 1369.96337890625, 632.8125, 94.814811706543, -4.15559530258179, -3.57869529724121, 8.53620624542236, 1.06870234012604, -0.366412222385406, 0.839694678783417,Starts
0:25/12/2019 16:42:51.691,5.492786, 4_Baseline, 435039.5743572, 1702, 2108.05200195313, 1374.35900878906, 632.8125, 94.814811706543, -4.14362668991089, -3.58587670326233, 8.55056858062744, 1.05343508720398, 0.122137404978275, 1.19083964824677,Starts
0:25/12/2019 16:42:51.691,5.492811, 4_Baseline, 435039.574484, 1702, 2108.05200195313, 1376.55676269531, 632.8125, 94.814811706543, -4.16756439208984, -3.56672644615173, 8.54099369049072, 1.09923660755157, -0.167938932776451, 1.00763356685638,Starts
0:25/12/2019 16:42:51.706,5.507885, 4_Baseline, 435039.5943501, 1701, 2110.07958984375, 1381.68493652344, 632.8125, 94.814811706543, -4.15559530258179, -3.57151412963867, 8.51705551147461, 0.839694678783417, 0.198473289608955, 0.977099239826202,Starts
0:25/12/2019 16:42:51.706,5.507962, 4_Baseline, 435039.5945607, 1701, 2110.07958984375, 1381.68493652344, 632.8125, 94.814811706543, -4.17713928222656, -3.54518246650696, 8.53141784667969, 1.11450386047363, 0.290076345205307, 1.02290081977844,Starts
0:25/12/2019 16:42:51.706,5.50807, 4_Baseline, 435039.5992821, 1701, 2110.07958984375, 1380.95239257813, 632.8125, 94.814811706543, -4.17953300476074, -3.54278874397278, 8.49551200866699, 1.29770994186401, 0.213740453124046, 1.09923660755157,Starts
0:25/12/2019 16:42:51.729,5.530564, 4_Baseline, 435039.6182376, 1700, 2112.11083984375, 1382.41760253906, 632.8125, 94.814811706543, -4.20825862884521, -3.5499701499939, 8.55774974822998, 1.35877859592438, -0.0763358771800995, 0.885496199131012,Starts
0:25/12/2019 16:42:51.729,5.530602, 4_Baseline, 435039.6202321, 1702, 2108.05200195313, 1383.8828125, 632.8125, 94.814811706543, -4.20825862884521, -3.55715131759644, 8.56014347076416, 0.870229005813599, -0.488549619913101, 0.885496199131012,Starts
0:25/12/2019 16:42:51.751,5.55308, 4_Baseline, 435039.6431691, 1701, 2110.07958984375, 1383.15014648438, 632.8125, 94.814811706543, -4.22740888595581, -3.53800129890442, 8.54578113555908, 0.839694678783417, -0.625954210758209, 0.793893158435822,Starts
0:25/12/2019 16:42:51.751,5.553126, 4_Baseline, 435039.6432913, 1700, 2112.11083984375, 1382.41760253906, 632.8125, 94.814811706543, -4.20825862884521, -3.55954527854919, 8.55296230316162, 0.854961812496185, -0.656488537788391, 0.503816783428192,Starts
0:25/12/2019 16:42:51.785,5.586556, 4_Baseline, 435039.6693304, 1701, 2110.07958984375, 1381.68493652344, 632.8125, 94.814811706543, -4.19868326187134, -3.55954527854919, 8.52902412414551, 0.793893158435822, -0.900763332843781, 0.534351170063019,Starts
0:25/12/2019 16:42:51.785,5.586591, 4_Baseline, 435039.6710672, 1702, 2108.05200195313, 1382.41760253906, 632.8125, 94.814811706543, -4.19868326187134, -3.56433272361755, 8.5433874130249, 0.977099239826202, -1.11450386047363, 0.549618303775787,Starts
0:25/12/2019 16:42:51.785,5.586619, 4_Baseline, 435039.6712419, 1701, 2110.07958984375, 1380.95239257813, 632.8125, 94.814811706543, -4.18671464920044, -3.5499701499939, 8.5553560256958, 0.687022924423218, -0.870229005813599, 0.763358771800995,Starts
0:25/12/2019 16:42:51.785,5.58665, 4_Baseline, 435039.6714642, 1700, 2112.11083984375, 1380.95239257813, 632.8125, 94.814811706543, -4.18671464920044, -3.53800129890442, 8.53620624542236, 0.763358771800995, -0.839694678783417, 0.625954210758209,Starts
0:25/12/2019 16:42:51.807,5.608891, 4_Baseline, 435039.6930341, 1700, 2112.11083984375, 1383.15014648438, 632.8125, 94.814811706543, -4.17953300476074, -3.55236387252808, 8.5553560256958, 0.824427485466003, -0.977099239826202, 0.671755731105804,Starts
0:25/12/2019 16:42:51.807,5.608927, 4_Baseline, 435039.6932077, 1700, 2112.11083984375, 1389.01098632813, 632.8125, 94.814811706543, -4.15320158004761, -3.56433272361755, 8.54099369049072, 0.610687017440796, -1.23664116859436, 0.656488537788391,Starts
0:25/12/2019 16:42:51.807,5.608956, 4_Baseline, 435039.6950639, 1701, 2110.07958984375, 1401.46520996094, 632.8125, 94.814811706543, -4.14602041244507, -3.57390785217285, 8.52902412414551, 0.641221344470978, -0.732824444770813, 0.7175572514534,Starts
0:25/12/2019 16:42:51.807,5.608988, 4_Baseline, 435039.6970143, 1701, 2110.07958984375, 1417.58239746094, 632.8125, 94.814811706543, -4.17713928222656, -3.57151412963867, 8.54578113555908, 1.03816795349121, -0.946564912796021, 0.534351170063019,Starts
0:25/12/2019 16:42:51.807,5.609012, 4_Baseline, 435039.6990674, 1700, 2112.11083984375, 1435.8974609375, 632.8125, 94.814811706543, -4.18192720413208, -3.56433272361755, 8.53141784667969, 0.992366433143616, -1.06870234012604, 0.793893158435822,Starts
0:25/12/2019 16:42:51.830,5.631652, 4_Baseline, 435039.7190012, 1701, 2110.07958984375, 1457.14282226563, 632.8125, 94.814811706543, -4.15080785751343, -3.57390785217285, 8.53381252288818, 0.732824444770813, -0.900763332843781, 0.732824444770813,Starts
0:25/12/2019 16:42:51.830,5.631693, 4_Baseline, 435039.7230066, 1700, 2112.11083984375, 1479.853515625, 632.8125, 94.814811706543, -4.14602041244507, -3.56193900108337, 8.53859996795654, 0.778625965118408, -0.748091578483582, 0.854961812496185,Starts
0:25/12/2019 16:42:51.830,5.631747, 4_Baseline, 435039.723282, 1700, 2112.11083984375, 1500.36633300781, 632.8125, 94.814811706543, -4.15559530258179, -3.55475759506226, 8.51944923400879, 0.885496199131012, -0.534351170063019, 0.961832046508789,Starts
0:25/12/2019 16:42:51.852,5.654011, 4_Baseline, 435039.7429298, 1699, 2114.14624023438, 1521.61169433594, 632.8125, 94.814811706543, -4.12447643280029, -3.56193900108337, 8.54817485809326, 0.80916029214859, -0.656488537788391, 1.03816795349121,Starts
0:25/12/2019 16:42:51.863,5.664678, 4_Baseline, 435039.7508302, 1701, 2110.07958984375, 1539.9267578125, 632.8125, 94.814811706543, -4.15798902511597, -3.56912016868591, 8.5433874130249, 1.11450386047363, -0.580152690410614, 0.870229005813599,Starts
0:25/12/2019 16:42:51.863,5.664713, 4_Baseline, 435039.7528953, 1700, 2112.11083984375, 1552.38098144531, 632.8125, 94.814811706543, -4.14362668991089, -3.57151412963867, 8.55774974822998, 1.00763356685638, -0.213740453124046, 1.00763356685638,Starts
0:25/12/2019 16:42:51.863,5.664745, 4_Baseline, 435039.7530179, 1700, 2112.11083984375, 1556.77661132813, 632.8125, 94.814811706543, -4.14362668991089, -3.55715131759644, 8.5433874130249, 0.961832046508789, -0.748091578483582, 0.977099239826202,Starts
0:25/12/2019 16:42:51.886,5.687553, 4_Baseline, 435039.7719193, 1701, 2110.07958984375, 1556.77661132813, 632.8125, 94.814811706543, -4.15080785751343, -3.54757618904114, 8.53620624542236, 0.870229005813599, -0.763358771800995, 0.824427485466003,Starts
0:25/12/2019 16:42:51.886,5.687589, 4_Baseline, 435039.7721669, 1701, 2110.07958984375, 1553.11352539063, 632.8125, 94.814811706543, -4.16277694702148, -3.56193900108337, 8.54099369049072, 1.00763356685638, -0.213740453124046, 1.08396947383881,Starts
0:25/12/2019 16:42:51.907,5.709473, 4_Baseline, 435039.793764, 1700, 2112.11083984375, 1544.32238769531, 632.8125, 94.814811706543, -4.20825862884521, -3.5499701499939, 8.53381252288818, 1.175572514534, -0.412213742733002, 0.80916029214859,Starts
0:25/12/2019 16:42:51.907,5.709519, 4_Baseline, 435039.7958493, 1700, 2112.11083984375, 1536.26379394531, 632.8125, 94.814811706543, -4.18192720413208, -3.55475759506226, 8.53381252288818, 0.946564912796021, -0.229007631540298, 0.793893158435822,Starts
0:25/12/2019 16:42:51.930,5.732194, 4_Baseline, 435039.8187062, 1699, 2114.14624023438, 1525.27478027344, 632.8125, 94.814811706543, -4.17474555969238, -3.5403950214386, 8.52184295654297, 0.900763332843781, -0.503816783428192, 0.946564912796021,Starts
0:25/12/2019 16:42:51.930,5.732242, 4_Baseline, 435039.820714, 1700, 2112.11083984375, 1512.087890625, 632.8125, 94.814811706543, -4.17713928222656, -3.55475759506226, 8.53141784667969, 1.05343508720398, -0.290076345205307, 0.854961812496185,Starts
0:25/12/2019 16:42:51.930,5.73228, 4_Baseline, 435039.821718, 1700, 2112.11083984375, 1498.90112304688, 632.8125, 94.814811706543, -4.16756439208984, -3.53800129890442, 8.53859996795654, 0.870229005813599, -0.320610672235489, 0.931297719478607,Starts
0:25/12/2019 16:42:51.930,5.732327, 4_Baseline, 435039.8235904, 1701, 2110.07958984375, 1482.78393554688, 632.8125, 94.814811706543, -4.16756439208984, -3.53800129890442, 8.52902412414551, 1.09923660755157, -0.641221344470978, 0.763358771800995,Starts
0:25/12/2019 16:42:51.930,5.732369, 4_Baseline, 435039.8248463, 1699, 2114.14624023438, 1464.46887207031, 632.8125, 94.814811706543, -4.15798902511597, -3.5403950214386, 8.5433874130249, 1.14503812789917, -0.549618303775787, 0.885496199131012,Starts
0:25/12/2019 16:42:52.005,5.807339, 4_Baseline, 435039.8965723, 1700, 2112.11083984375, 1453.47985839844, 632.8125, 94.814811706543, -4.17953300476074, -3.5499701499939, 8.53859996795654, 0.977099239826202, -0.641221344470978, 1.1297709941864,Starts
0:25/12/2019 16:42:52.009,5.811205, 4_Baseline, 435039.9004256, 1700, 2112.11083984375, 1438.82788085938, 632.8125, 94.814811706543, -4.16756439208984, -3.55475759506226, 8.51226806640625, 0.992366433143616, -0.625954210758209, 0.854961812496185,Starts
0:25/12/2019 16:42:52.019,5.82132, 4_Baseline, 435039.907518, 1699, 2114.14624023438, 1426.37365722656, 632.8125, 94.814811706543, -4.16277694702148, -3.54757618904114, 8.54099369049072, 0.992366433143616, -0.656488537788391, 0.946564912796021,Starts
0:25/12/2019 16:42:52.019,5.821358, 4_Baseline, 435039.9078182, 1699, 2114.14624023438, 1414.65197753906, 632.8125, 94.814811706543, -4.1603832244873, -3.53560733795166, 8.56014347076416, 0.870229005813599, -0.229007631540298, 0.702290058135986,Starts
0:25/12/2019 16:42:52.019,5.821384, 4_Baseline, 435039.9114568, 1699, 2114.14624023438, 1402.19775390625, 632.8125, 94.814811706543, -4.1915020942688, -3.54278874397278, 8.5553560256958, 0.977099239826202, -0.442748099565506, 0.870229005813599,Starts
0:25/12/2019 16:42:52.031,5.832608, 4_Baseline, 435039.9143726, 1699, 2114.14624023438, 1386.81323242188, 632.8125, 94.814811706543, -4.21783351898193, -3.56912016868591, 8.53141784667969, 0.564885497093201, -0.641221344470978, 1.03816795349121,Starts
0:25/12/2019 16:42:52.031,5.832679, 4_Baseline, 435039.914694, 1699, 2114.14624023438, 1373.62634277344, 632.8125, 94.814811706543, -4.16756439208984, -3.56193900108337, 8.56014347076416, 0.885496199131012, -0.534351170063019, 0.7175572514534,Starts
0:25/12/2019 16:42:52.031,5.832727, 4_Baseline, 435039.9149324, 1699, 2114.14624023438, 1361.90478515625, 632.8125, 94.814811706543, -4.16756439208984, -3.56433272361755, 8.53859996795654, 0.580152690410614, -0.580152690410614, 0.595419824123383,Starts
0:25/12/2019 16:42:52.031,5.832771, 4_Baseline, 435039.9184039, 1699, 2114.14624023438, 1353.11352539063, 632.8125, 94.814811706543, -4.18192720413208, -3.5499701499939, 8.55296230316162, 0.763358771800995, -0.534351170063019, 0.961832046508789,Starts
0:25/12/2019 16:42:52.031,5.832814, 4_Baseline, 435039.9187114, 1699, 2114.14624023438, 1346.52014160156, 632.8125, 94.814811706543, -4.19868326187134, -3.53560733795166, 8.52902412414551, 0.610687017440796, -0.885496199131012, 0.992366433143616,Starts
0:25/12/2019 16:42:52.031,5.832856, 4_Baseline, 435039.9204811, 1698, 2116.18530273438, 1343.58972167969, 632.8125, 94.814811706543, -4.21304607391357, -3.54278874397278, 8.54099369049072, 0.47328245639801, -0.885496199131012, 0.839694678783417,Starts
0:25/12/2019 16:42:52.053,5.854618, 4_Baseline, 435039.9443723, 1699, 2114.14624023438, 1338.46154785156, 632.8125, 94.814811706543, -4.18671464920044, -3.56672644615173, 8.54099369049072, 0.916030526161194, -1.35877859592438, 0.7175572514534,Starts
0:25/12/2019 16:42:52.053,5.854656, 4_Baseline, 435039.9445776, 1699, 2114.14624023438, 1339.9267578125, 632.8125, 94.814811706543, -4.14602041244507, -3.55715131759644, 8.53141784667969, 0.671755731105804, -0.992366433143616, 0.47328245639801,Starts
0:25/12/2019 16:42:52.053,5.854688, 4_Baseline, 435039.9447719, 1699, 2114.14624023438, 1342.12451171875, 632.8125, 94.814811706543, -4.17713928222656, -3.55475759506226, 8.5553560256958, 0.641221344470978, -0.748091578483582, 0.702290058135986,Starts
0:25/12/2019 16:42:52.053,5.854715, 4_Baseline, 435039.9453216, 1699, 2114.14624023438, 1344.32238769531, 632.8125, 94.814811706543, -4.16995811462402, -3.57390785217285, 8.53141784667969, 0.778625965118408, -0.931297719478607, 0.824427485466003,Starts
0:25/12/2019 16:42:52.075,5.877283, 4_Baseline, 435039.9692743, 1698, 2116.18530273438, 1349.45056152344, 632.8125, 94.814811706543, -4.15798902511597, -3.56672644615173, 8.54099369049072, 0.824427485466003, -1.05343508720398, 0.900763332843781,Starts
0:25/12/2019 16:42:52.075,5.87732, 4_Baseline, 435039.9695172, 1700, 2112.11083984375, 1355.31140136719, 632.8125, 94.814811706543, -4.15798902511597, -3.55475759506226, 8.52184295654297, 0.839694678783417, -0.900763332843781, 0.564885497093201,Starts
0:25/12/2019 16:42:52.087,5.888801, 4_Baseline, 435039.9732833, 1699, 2114.14624023438, 1358.97436523438, 632.8125, 94.814811706543, -4.17474555969238, -3.54278874397278, 8.54578113555908, 0.961832046508789, -0.763358771800995, 0.946564912796021,Starts
0:25/12/2019 16:42:52.087,5.888837, 4_Baseline, 435039.9735088, 1698, 2116.18530273438, 1361.17211914063, 632.8125, 94.814811706543, -4.16995811462402, -3.55475759506226, 8.56014347076416, 0.610687017440796, -0.854961812496185, 0.839694678783417,Starts
0:25/12/2019 16:42:52.109,5.910994, 4_Baseline, 435039.9981635, 1699, 2114.14624023438, 1364.83520507813, 632.8125, 94.814811706543, -4.18671464920044, -3.54518246650696, 8.54578113555908, 0.47328245639801, -0.763358771800995, 0.854961812496185,Starts
0:25/12/2019 16:42:52.109,5.911033, 4_Baseline, 435039.9983026, 1699, 2114.14624023438, 1367.03295898438, 632.8125, 94.814811706543, -4.18910837173462, -3.54518246650696, 8.53859996795654, 0.870229005813599, -0.824427485466003, 0.854961812496185,Starts
0:25/12/2019 16:42:52.109,5.911058, 4_Baseline, 435040.0002012, 1698, 2116.18530273438, 1367.765625, 632.8125, 94.814811706543, -4.19868326187134, -3.54757618904114, 8.53859996795654, 0.778625965118408, -0.671755731105804, 0.564885497093201,Starts
0:25/12/2019 16:42:52.109,5.911083, 4_Baseline, 435040.0005666, 1697, 2118.228515625, 1368.49816894531, 632.8125, 94.814811706543, -4.19868326187134, -3.57151412963867, 8.54578113555908, 0.931297719478607, -0.870229005813599, 0.534351170063019,Starts
0:25/12/2019 16:42:52.131,5.932876, 4_Baseline, 435040.0192836, 1699, 2114.14624023438, 1370.69592285156, 632.8125, 94.814811706543, -4.19628953933716, -3.55954527854919, 8.52423667907715, 0.763358771800995, -0.763358771800995, 0.625954210758209,Starts
0:25/12/2019 16:42:52.131,5.932912, 4_Baseline, 435040.0210877, 1698, 2116.18530273438, 1374.35900878906, 632.8125, 94.814811706543, -4.20825862884521, -3.56193900108337, 8.53141784667969, 0.580152690410614, -0.763358771800995, 0.656488537788391,Starts
0:25/12/2019 16:42:52.160,5.961708, 4_Baseline, 435040.0431377, 1699, 2114.14624023438, 1377.28942871094, 632.8125, 94.814811706543, -4.20107698440552, -3.55475759506226, 8.55774974822998, 0.7175572514534, -0.961832046508789, 0.503816783428192,Starts
0:25/12/2019 16:42:52.160,5.961739, 4_Baseline, 435040.0471587, 1698, 2116.18530273438, 1382.41760253906, 632.8125, 94.814811706543, -4.20347118377686, -3.55475759506226, 8.53620624542236, 0.7175572514534, -0.885496199131012, 0.610687017440796,Starts
0:25/12/2019 16:42:52.160,5.961771, 4_Baseline, 435040.0473205, 1698, 2116.18530273438, 1386.08056640625, 632.8125, 94.814811706543, -4.20347118377686, -3.57151412963867, 8.53620624542236, 0.885496199131012, -0.977099239826202, 0.793893158435822,Starts
0:25/12/2019 16:42:52.175,5.977682, 4_Baseline, 435040.0687767, 1698, 2116.18530273438, 1389.74353027344, 632.8125, 94.814811706543, -4.18192720413208, -3.55715131759644, 8.53381252288818, 0.80916029214859, -0.854961812496185, 0.824427485466003,Starts
0:25/12/2019 16:42:52.175,5.977718, 4_Baseline, 435040.0690518, 1698, 2116.18530273438, 1389.74353027344, 632.8125, 94.814811706543, -4.17953300476074, -3.56193900108337, 8.53620624542236, 1.1297709941864, -0.671755731105804, 0.7175572514534,Starts
0:25/12/2019 16:42:52.186,5.988658, 4_Baseline, 435040.0727474, 1698, 2116.18530273438, 1391.20874023438, 632.8125, 94.814811706543, -4.16277694702148, -3.55475759506226, 8.53381252288818, 0.80916029214859, -0.580152690410614, 0.595419824123383,Starts
0:25/12/2019 16:42:52.186,5.988703, 4_Baseline, 435040.0747445, 1697, 2118.228515625, 1387.54577636719, 632.8125, 94.814811706543, -4.18432092666626, -3.5403950214386, 8.53141784667969, 0.900763332843781, -0.580152690410614, 0.900763332843781,Starts
0:25/12/2019 16:42:52.209,6.011227, 4_Baseline, 435040.0948016, 1698, 2116.18530273438, 1381.68493652344, 632.8125, 94.814811706543, -4.18432092666626, -3.54518246650696, 8.53859996795654, 0.641221344470978, -0.549618303775787, 0.824427485466003,Starts
0:25/12/2019 16:42:52.209,6.011265, 4_Baseline, 435040.0950926, 1698, 2116.18530273438, 1374.35900878906, 632.8125, 94.814811706543, -4.17953300476074, -3.54757618904114, 8.52902412414551, 0.671755731105804, -0.702290058135986, 0.519083976745605,Starts
0:25/12/2019 16:42:52.231,6.033479, 4_Baseline, 435040.1205784, 1697, 2118.228515625, 1367.03295898438, 632.8125, 94.814811706543, -4.17713928222656, -3.54518246650696, 8.52902412414551, 0.671755731105804, -0.625954210758209, 0.946564912796021,Starts
0:25/12/2019 16:42:52.231,6.033551, 4_Baseline, 435040.1208094, 1697, 2118.228515625, 1364.1025390625, 632.8125, 94.814811706543, -4.16995811462402, -3.56433272361755, 8.53381252288818, 0.839694678783417, -0.564885497093201, 0.992366433143616,Starts
0:25/12/2019 16:42:52.231,6.033578, 4_Baseline, 435040.1225307, 1698, 2116.18530273438, 1361.17211914063, 632.8125, 94.814811706543, -4.18671464920044, -3.57390785217285, 8.54099369049072, 0.824427485466003, -0.519083976745605, 0.80916029214859,Starts
0:25/12/2019 16:42:52.254,6.056336, 4_Baseline, 435040.1435343, 1697, 2118.228515625, 1359.70690917969, 632.8125, 94.814811706543, -4.18910837173462, -3.56193900108337, 8.55296230316162, 0.549618303775787, -0.458015263080597, 0.488549619913101,Starts
0:25/12/2019 16:42:52.254,6.056405, 4_Baseline, 435040.1436686, 1697, 2118.228515625, 1361.90478515625, 632.8125, 94.814811706543, -4.16756439208984, -3.5499701499939, 8.55056858062744, 0.870229005813599, -0.793893158435822, 0.687022924423218,Starts
0:25/12/2019 16:42:52.254,6.056474, 4_Baseline, 435040.1457981, 1698, 2116.18530273438, 1362.63732910156, 632.8125, 94.814811706543, -4.19868326187134, -3.53321361541748, 8.5553560256958, 0.641221344470978, -0.671755731105804, 0.854961812496185,Starts
0:25/12/2019 16:42:52.265,6.066801, 4_Baseline, 435040.1495161, 1698, 2116.18530273438, 1361.90478515625, 632.8125, 94.814811706543, -4.1915020942688, -3.53321361541748, 8.52902412414551, 0.80916029214859, -0.885496199131012, 0.854961812496185,Starts
0:25/12/2019 16:42:52.276,6.078369, 4_Baseline, 435040.1694144, 1697, 2118.228515625, 1358.97436523438, 632.8125, 94.814811706543, -4.18192720413208, -3.5308198928833, 8.53141784667969, 0.763358771800995, -0.702290058135986, 0.748091578483582,Starts
0:25/12/2019 16:42:52.276,6.07844, 4_Baseline, 435040.1695477, 1697, 2118.228515625, 1356.77661132813, 632.8125, 94.814811706543, -4.1723518371582, -3.52842617034912, 8.52423667907715, 0.671755731105804, -0.656488537788391, 0.671755731105804,Starts
0:25/12/2019 16:42:52.287,6.089135, 4_Baseline, 435040.171582, 1696, 2120.27563476563, 1353.84619140625, 632.8125, 94.814811706543, -4.18192720413208, -3.54278874397278, 8.55774974822998, 0.732824444770813, -1.02290081977844, 0.732824444770813,Starts
0:25/12/2019 16:42:52.287,6.089191, 4_Baseline, 435040.1774627, 1697, 2118.228515625, 1351.64831542969, 632.8125, 94.814811706543, -4.17953300476074, -3.53321361541748, 8.5433874130249, 0.931297719478607, -0.671755731105804, 0.916030526161194,Starts
0:25/12/2019 16:42:52.317,6.118526, 4_Baseline, 435040.1945175, 1697, 2118.228515625, 1349.45056152344, 632.8125, 94.814811706543, -4.15559530258179, -3.5308198928833, 8.54578113555908, 0.839694678783417, -0.732824444770813, 0.839694678783417,Starts
0:25/12/2019 16:42:52.317,6.118557, 4_Baseline, 435040.1964865, 1697, 2118.228515625, 1349.45056152344, 632.8125, 94.814811706543, -4.1603832244873, -3.51406335830688, 8.52423667907715, 1.00763356685638, -0.396946579217911, 0.992366433143616,Starts
0:25/12/2019 16:42:52.317,6.11859, 4_Baseline, 435040.1994449, 1696, 2120.27563476563, 1347.25280761719, 632.8125, 94.814811706543, -4.15798902511597, -3.5403950214386, 8.53141784667969, 0.458015263080597, -0.213740453124046, 1.06870234012604,Starts
0:25/12/2019 16:42:52.355,6.156495, 4_Baseline, 435040.2393158, 1697, 2118.228515625, 1349.45056152344, 632.8125, 94.814811706543, -4.19868326187134, -3.53800129890442, 8.54817485809326, 0.80916029214859, -0.335877865552902, 0.854961812496185,Starts
0:25/12/2019 16:42:52.355,6.156545, 4_Baseline, 435040.2492507, 1696, 2120.27563476563, 1350.91577148438, 632.8125, 94.814811706543, -4.19389581680298, -3.54278874397278, 8.52663040161133, 0.839694678783417, -0.106870226562023, 0.732824444770813,Starts
0:25/12/2019 16:42:52.355,6.156583, 4_Baseline, 435040.2494116, 1697, 2118.228515625, 1354.57873535156, 632.8125, 94.814811706543, -4.21304607391357, -3.54757618904114, 8.5433874130249, 0.80916029214859, -0.580152690410614, 0.641221344470978,Starts
