Date: Time, TimeSinceLoad(s), PPID, TimeStamp (Shimmer),Skin Conductance,Skin Resistance,PPG,HRV,Heart Rate,X (Shimmer),Y (Shimmer),Z (Shimmer),Gyro P (Shimmer),Gyro R (Shimmer),Gyro Y (Shimmer),Event
0:25/12/2019 17:14:49.388,2.876282, 4_Baseline, 436956.7917514, 3075, 908.938049316406, 1367.03295898438, 656.25, 91.4285736083984, -2.56612801551819, -4.33034133911133, 8.80191516876221, -0.183206111192703, -2.09160304069519, 0.656488537788391,Starts
0:25/12/2019 17:14:49.389,2.876423, 4_Baseline, 436956.7936729, 3076, 908.561645507813, 1367.765625, 656.25, 91.4285736083984, -2.56612801551819, -4.30400943756104, 8.80909633636475, -0.366412222385406, -1.80152666568756, 0.656488537788391,Starts
0:25/12/2019 17:14:49.389,2.87645, 4_Baseline, 436956.7938737, 3074, 909.314758300781, 1368.49816894531, 656.25, 91.4285736083984, -2.54458403587341, -4.30879735946655, 8.83542823791504, -0.290076345205307, -1.77099239826202, 0.656488537788391,Starts
0:25/12/2019 17:14:49.389,2.876474, 4_Baseline, 436956.7939902, 3075, 908.938049316406, 1370.69592285156, 656.25, 91.4285736083984, -2.52782773971558, -4.29922199249268, 8.80909633636475, -0.442748099565506, -1.58778631687164, 0.274809151887894,Starts
0:25/12/2019 17:14:49.389,2.876931, 4_Baseline, 436956.797867, 3074, 909.314758300781, 1372.1611328125, 656.25, 91.4285736083984, -2.53500890731812, -4.33273506164551, 8.80909633636475, -0.229007631540298, -1.64885497093201, 0.870229005813599,Starts
0:25/12/2019 17:14:49.389,2.876958, 4_Baseline, 436956.7996541, 3074, 909.314758300781, 1370.69592285156, 656.25, 91.4285736083984, -2.53979659080505, -4.35667276382446, 8.83782196044922, -0.183206111192703, -1.55725193023682, 1.05343508720398,Starts
0:25/12/2019 17:14:49.389,2.876982, 4_Baseline, 436956.7998164, 3073, 909.691772460938, 1367.765625, 656.25, 91.4285736083984, -2.53261518478394, -4.33273506164551, 8.81867122650146, -0.137404575943947, -1.32824432849884, 0.992366433143616,Starts
0:25/12/2019 17:14:49.389,2.877005, 4_Baseline, 436956.8057722, 3074, 909.314758300781, 1363.36999511719, 656.25, 91.4285736083984, -2.50867748260498, -4.31597852706909, 8.82824611663818, -0.122137404978275, -1.46564888954163, 0.778625965118408,Starts
0:25/12/2019 17:14:49.389,2.877032, 4_Baseline, 436956.8335939, 3073, 909.691772460938, 1361.17211914063, 656.25, 91.4285736083984, -2.52064633369446, -4.30879735946655, 8.81149005889893, -0.0763358771800995, -1.00763356685638, 0.885496199131012,Starts
0:25/12/2019 17:14:49.389,2.877055, 4_Baseline, 436956.833764, 3074, 909.314758300781, 1359.70690917969, 656.25, 91.4285736083984, -2.53740286827087, -4.33512878417969, 8.82345867156982, -0.0305343512445688, -1.03816795349121, 0.961832046508789,Starts
0:25/12/2019 17:14:49.389,2.877079, 4_Baseline, 436956.8355725, 3072, 910.069152832031, 1355.31140136719, 656.25, 91.4285736083984, -2.54458403587341, -4.32555341720581, 8.82824611663818, -0.0916030555963516, -0.916030526161194, 0.656488537788391,Starts
0:25/12/2019 17:14:49.389,2.877106, 4_Baseline, 436956.8357992, 3073, 909.691772460938, 1356.77661132813, 656.25, 91.4285736083984, -2.53740286827087, -4.31119108200073, 8.78994655609131, -0.0305343512445688, -0.931297719478607, 0.534351170063019,Starts
0:25/12/2019 17:14:49.390,2.87717, 4_Baseline, 436956.837628, 3072, 910.069152832031, 1353.84619140625, 656.25, 91.4285736083984, -2.56134057044983, -4.31837224960327, 8.81627750396729, -0.0916030555963516, -1.00763356685638, 0.763358771800995,Starts
0:25/12/2019 17:14:49.390,2.877222, 4_Baseline, 436956.859611, 3072, 910.069152832031, 1356.0439453125, 656.25, 91.4285736083984, -2.56612801551819, -4.30640316009521, 8.79712772369385, -0.152671754360199, -0.7175572514534, 0.702290058135986,Starts
0:25/12/2019 17:14:49.390,2.877273, 4_Baseline, 436956.8845215, 3073, 909.691772460938, 1361.17211914063, 656.25, 91.4285736083984, -2.55894684791565, -4.31358480453491, 8.79952144622803, 0.0458015277981758, -1.14503812789917, 0.580152690410614,Starts
0:25/12/2019 17:14:49.390,2.877326, 4_Baseline, 436956.8846663, 3073, 909.691772460938, 1364.83520507813, 656.25, 91.4285736083984, -2.54937171936035, -4.33512878417969, 8.82824611663818, 0.0152671756222844, -1.19083964824677, 0.381679385900497,Starts
0:25/12/2019 17:14:49.390,2.877385, 4_Baseline, 436956.8848062, 3073, 909.691772460938, 1367.03295898438, 656.25, 91.4285736083984, -2.54697775840759, -4.32794713973999, 8.80191516876221, -0.183206111192703, -1.20610690116882, 0.824427485466003,Starts
0:25/12/2019 17:14:49.390,2.877437, 4_Baseline, 436956.9084428, 3072, 910.069152832031, 1368.49816894531, 656.25, 91.4285736083984, -2.56612801551819, -4.31597852706909, 8.79952144622803, -0.0763358771800995, -1.26717555522919, 0.671755731105804,Starts
0:25/12/2019 17:14:49.390,2.877489, 4_Baseline, 436956.9104485, 3071, 910.446838378906, 1367.765625, 656.25, 91.4285736083984, -2.56612801551819, -4.33273506164551, 8.81388378143311, 0.0152671756222844, -1.08396947383881, 0.366412222385406,Starts
0:25/12/2019 17:14:49.390,2.87754, 4_Baseline, 436956.9105937, 3072, 910.069152832031, 1369.23071289063, 656.25, 91.4285736083984, -2.53261518478394, -4.32076597213745, 8.825852394104, -0.335877865552902, -1.34351146221161, 0.641221344470978,Starts
0:25/12/2019 17:14:49.390,2.878035, 4_Baseline, 436956.9126334, 3071, 910.446838378906, 1367.765625, 656.25, 91.4285736083984, -2.54937171936035, -4.31119108200073, 8.80909633636475, -0.351145029067993, -1.34351146221161, 0.335877865552902,Starts
0:25/12/2019 17:14:49.390,2.878094, 4_Baseline, 436956.9128459, 3072, 910.069152832031, 1370.69592285156, 656.25, 91.4285736083984, -2.52543377876282, -4.32315969467163, 8.84260940551758, -0.259541988372803, -1.28244268894196, 0.610687017440796,Starts
0:25/12/2019 17:14:49.391,2.87816, 4_Baseline, 436956.9149237, 3070, 910.824768066406, 1370.69592285156, 656.25, 91.4285736083984, -2.49192094802856, -4.33752250671387, 8.80191516876221, -0.244274809956551, -1.16030538082123, 0.732824444770813,Starts
0:25/12/2019 17:14:49.391,2.878213, 4_Baseline, 436956.936117, 3071, 910.446838378906, 1376.55676269531, 656.25, 91.4285736083984, -2.51825261116028, -4.32555341720581, 8.82106494903564, 0.0305343512445688, -0.961832046508789, 0.80916029214859,Starts
0:25/12/2019 17:14:49.391,2.878274, 4_Baseline, 436956.9361276, 3071, 910.446838378906, 1384.61535644531, 656.25, 91.4285736083984, -2.54458403587341, -4.31837224960327, 8.79473400115967, 0.0305343512445688, -0.977099239826202, 0.47328245639801,Starts
0:25/12/2019 17:14:49.391,2.878326, 4_Baseline, 436956.9592843, 3069, 911.203063964844, 1397.80224609375, 656.25, 91.4285736083984, -2.51825261116028, -4.30640316009521, 8.79234027862549, 0.229007631540298, -1.11450386047363, 0.656488537788391,Starts
0:25/12/2019 17:14:49.391,2.878376, 4_Baseline, 436956.9612894, 3070, 910.824768066406, 1420.51281738281, 656.25, 91.4285736083984, -2.53740286827087, -4.33034133911133, 8.82106494903564, 0.656488537788391, -0.687022924423218, 0.47328245639801,Starts
0:25/12/2019 17:14:49.391,2.878428, 4_Baseline, 436956.9632259, 3070, 910.824768066406, 1446.15380859375, 656.25, 91.4285736083984, -2.48713350296021, -4.32555341720581, 8.82345867156982, 0.916030526161194, -0.885496199131012, 0.641221344470978,Starts
0:25/12/2019 17:14:49.391,2.878487, 4_Baseline, 436956.9672432, 3070, 910.824768066406, 1471.794921875, 656.25, 91.4285736083984, -2.4967086315155, -4.34470367431641, 8.83782196044922, 1.16030538082123, -0.625954210758209, 0.564885497093201,Starts
0:25/12/2019 17:14:49.391,2.87854, 4_Baseline, 436956.9852105, 3069, 911.203063964844, 1498.90112304688, 656.25, 91.4285736083984, -2.48713350296021, -4.31837224960327, 8.85936546325684, 1.02290081977844, -0.0305343512445688, 0.47328245639801,Starts
0:25/12/2019 17:14:49.391,2.878593, 4_Baseline, 436956.9871419, 3070, 910.824768066406, 1526.00732421875, 656.25, 91.4285736083984, -2.49910235404968, -4.30879735946655, 8.8521842956543, 0.763358771800995, 0.0152671756222844, 0.564885497093201,Starts
0:25/12/2019 17:14:49.391,2.878643, 4_Baseline, 436956.9872961, 3069, 911.203063964844, 1543.58972167969, 656.25, 91.4285736083984, -2.52543377876282, -4.32555341720581, 8.8402156829834, 0.580152690410614, 0.335877865552902, 0.671755731105804,Starts
0:25/12/2019 17:14:49.391,2.878701, 4_Baseline, 436957.0091114, 3068, 911.581665039063, 1556.77661132813, 656.25, 91.4285736083984, -2.53500890731812, -4.33991622924805, 8.80909633636475, 0.595419824123383, 0.564885497093201, 0.595419824123383,Starts
0:25/12/2019 17:14:49.391,2.878756, 4_Baseline, 436957.0111043, 3069, 911.203063964844, 1567.765625, 656.25, 91.4285736083984, -2.56373429298401, -4.32794713973999, 8.7660083770752, 0.687022924423218, 0.0916030555963516, 0.671755731105804,Starts
0:25/12/2019 17:14:49.391,2.878807, 4_Baseline, 436957.0150886, 3068, 911.581665039063, 1575.09155273438, 656.25, 91.4285736083984, -2.60682225227356, -4.34949111938477, 8.7660083770752, 0.381679385900497, -0.106870226562023, 0.458015263080597,Starts
0:25/12/2019 17:14:49.391,2.878858, 4_Baseline, 436957.0152267, 3069, 911.203063964844, 1575.82421875, 656.25, 91.4285736083984, -2.6020348072052, -4.33512878417969, 8.76122093200684, 0.580152690410614, -0.122137404978275, 0.534351170063019,Starts
0:25/12/2019 17:14:49.391,2.878968, 4_Baseline, 436957.0351976, 3067, 911.960571289063, 1567.765625, 656.25, 91.4285736083984, -2.57330942153931, -4.31597852706909, 8.80191516876221, 0.580152690410614, -0.198473289608955, 0.167938932776451,Starts
0:25/12/2019 17:14:49.391,2.879022, 4_Baseline, 436957.0369966, 3068, 911.581665039063, 1556.77661132813, 656.25, 91.4285736083984, -2.59724712371826, -4.30161571502686, 8.77797698974609, 0.396946579217911, -0.595419824123383, 0.564885497093201,Starts
0:25/12/2019 17:14:49.391,2.879075, 4_Baseline, 436957.045092, 3066, 912.33984375, 1542.12451171875, 656.25, 91.4285736083984, -2.58527827262878, -4.31597852706909, 8.77797698974609, 0.458015263080597, -0.580152690410614, 0.671755731105804,Starts
0:25/12/2019 17:14:49.392,2.879125, 4_Baseline, 436957.0585454, 3068, 911.581665039063, 1523.8095703125, 656.25, 91.4285736083984, -2.5924596786499, -4.33273506164551, 8.77558326721191, 0.351145029067993, -0.946564912796021, 0.320610672235489,Starts
0:25/12/2019 17:14:49.392,2.879172, 4_Baseline, 436957.0601855, 3066, 912.33984375, 1505.49450683594, 656.25, 91.4285736083984, -2.59964084625244, -4.33512878417969, 8.80191516876221, 0.549618303775787, -1.11450386047363, 0.503816783428192,Starts
0:25/12/2019 17:14:49.392,2.879198, 4_Baseline, 436957.0840845, 3067, 911.960571289063, 1487.17944335938, 656.25, 91.4285736083984, -2.58527827262878, -4.34470367431641, 8.80909633636475, 0.488549619913101, -1.55725193023682, 0.763358771800995,Starts
0:25/12/2019 17:14:49.392,2.879224, 4_Baseline, 436957.0861887, 3066, 912.33984375, 1468.86450195313, 656.25, 91.4285736083984, -2.58767199516296, -4.33034133911133, 8.81867122650146, 0.503816783428192, -1.52671754360199, 0.870229005813599,Starts
0:25/12/2019 17:14:49.392,2.87925, 4_Baseline, 436957.0864301, 3066, 912.33984375, 1448.35168457031, 656.25, 91.4285736083984, -2.57330942153931, -4.31597852706909, 8.81149005889893, 0.656488537788391, -1.54198467731476, 0.748091578483582,Starts
0:25/12/2019 17:14:49.392,2.879274, 4_Baseline, 436957.0881514, 3065, 912.719360351563, 1429.30407714844, 656.25, 91.4285736083984, -2.55655288696289, -4.34709739685059, 8.81149005889893, 0.351145029067993, -1.41984736919403, 0.671755731105804,Starts
0:25/12/2019 17:14:49.392,2.879303, 4_Baseline, 436957.1101177, 3065, 912.719360351563, 1411.72155761719, 656.25, 91.4285736083984, -2.55415916442871, -4.34230995178223, 8.81388378143311, 0.7175572514534, -1.32824432849884, 0.778625965118408,Starts
0:25/12/2019 17:14:49.392,2.879327, 4_Baseline, 436957.1103637, 3067, 911.960571289063, 1396.33703613281, 656.25, 91.4285736083984, -2.5062837600708, -4.34230995178223, 8.82345867156982, 0.7175572514534, -1.11450386047363, 0.687022924423218,Starts
0:25/12/2019 17:14:49.392,2.87935, 4_Baseline, 436957.1120329, 3066, 912.33984375, 1382.41760253906, 656.25, 91.4285736083984, -2.52543377876282, -4.34949111938477, 8.83542823791504, 0.793893158435822, -1.16030538082123, 0.80916029214859,Starts
0:25/12/2019 17:14:49.392,2.879375, 4_Baseline, 436957.1544696, 3065, 912.719360351563, 1368.49816894531, 656.25, 91.4285736083984, -2.51346492767334, -4.33512878417969, 8.83782196044922, 0.992366433143616, -1.02290081977844, 0.610687017440796,Starts
0:25/12/2019 17:14:49.392,2.879403, 4_Baseline, 436957.1654039, 3066, 912.33984375, 1358.24169921875, 656.25, 91.4285736083984, -2.51585865020752, -4.32555341720581, 8.83542823791504, 0.458015263080597, -0.641221344470978, 0.900763332843781,Starts
0:25/12/2019 17:14:49.392,2.879428, 4_Baseline, 436957.1665124, 3064, 913.099243164063, 1347.9853515625, 656.25, 91.4285736083984, -2.50867748260498, -4.33512878417969, 8.80909633636475, 0.992366433143616, -0.625954210758209, 0.519083976745605,Starts
0:25/12/2019 17:14:49.392,2.879453, 4_Baseline, 436957.1667164, 3065, 912.719360351563, 1337.72888183594, 656.25, 91.4285736083984, -2.50867748260498, -4.32555341720581, 8.81388378143311, 0.824427485466003, -0.503816783428192, 0.916030526161194,Starts
0:25/12/2019 17:14:49.392,2.879478, 4_Baseline, 436957.1684787, 3064, 913.099243164063, 1328.93774414063, 656.25, 91.4285736083984, -2.50867748260498, -4.35427904129028, 8.80670261383057, 0.534351170063019, -0.244274809956551, 0.625954210758209,Starts
0:25/12/2019 17:14:49.392,2.879518, 4_Baseline, 436957.1686375, 3064, 913.099243164063, 1328.93774414063, 656.25, 91.4285736083984, -2.51825261116028, -4.34470367431641, 8.82106494903564, 1.02290081977844, -0.106870226562023, 0.763358771800995,Starts
0:25/12/2019 17:14:49.392,2.879543, 4_Baseline, 436957.1713384, 3064, 913.099243164063, 1332.60070800781, 656.25, 91.4285736083984, -2.52782773971558, -4.33273506164551, 8.81388378143311, 0.992366433143616, -0.183206111192703, 0.763358771800995,Starts
0:25/12/2019 17:14:49.392,2.879565, 4_Baseline, 436957.183537, 3065, 912.719360351563, 1338.46154785156, 656.25, 91.4285736083984, -2.53022146224976, -4.31358480453491, 8.8402156829834, 1.20610690116882, -0.0763358771800995, 0.824427485466003,Starts
0:25/12/2019 17:14:49.392,2.879588, 4_Baseline, 436957.2093018, 3063, 913.479431152344, 1342.85717773438, 656.25, 91.4285736083984, -2.52064633369446, -4.32315969467163, 8.82345867156982, 1.32824432849884, 0.183206111192703, 1.08396947383881,Starts
0:25/12/2019 17:14:49.392,2.879614, 4_Baseline, 436957.209576, 3064, 913.099243164063, 1347.25280761719, 656.25, 91.4285736083984, -2.54219031333923, -4.32555341720581, 8.81867122650146, 1.66412210464478, 0.763358771800995, 0.977099239826202,Starts
0:25/12/2019 17:14:49.392,2.879637, 4_Baseline, 436957.2098079, 3063, 913.479431152344, 1351.64831542969, 656.25, 91.4285736083984, -2.55655288696289, -4.34230995178223, 8.84500312805176, 1.51145040988922, 0.290076345205307, 1.11450386047363,Starts
0:25/12/2019 17:14:49.392,2.879661, 4_Baseline, 436957.2351988, 3064, 913.099243164063, 1356.0439453125, 703.125, 85.3333358764648, -2.57809686660767, -4.32315969467163, 8.84260940551758, 1.72519087791443, 0.396946579217911, 1.03816795349121,Starts
0:25/12/2019 17:14:49.392,2.879683, 4_Baseline, 436957.2353505, 3063, 913.479431152344, 1359.70690917969, 703.125, 85.3333358764648, -2.5828845500946, -4.32315969467163, 8.79952144622803, 1.72519087791443, 0.351145029067993, 1.00763356685638,Starts
0:25/12/2019 17:14:49.392,2.879709, 4_Baseline, 436957.2392031, 3062, 913.859924316406, 1361.17211914063, 703.125, 85.3333358764648, -2.61160969734192, -4.31119108200073, 8.77558326721191, 1.54198467731476, 0.0305343512445688, 0.870229005813599,Starts
0:25/12/2019 17:14:49.392,2.879731, 4_Baseline, 436957.2412201, 3065, 912.719360351563, 1365.56774902344, 703.125, 85.3333358764648, -2.56373429298401, -4.31837224960327, 8.78994655609131, 1.78625953197479, 0.152671754360199, 0.656488537788391,Starts
0:25/12/2019 17:14:49.392,2.879753, 4_Baseline, 436957.2413971, 3065, 912.719360351563, 1367.765625, 703.125, 85.3333358764648, -2.54937171936035, -4.31119108200073, 8.79473400115967, 1.51145040988922, -0.0610687024891377, 0.534351170063019,Starts
0:25/12/2019 17:14:49.392,2.879776, 4_Baseline, 436957.2591893, 3064, 913.099243164063, 1369.23071289063, 703.125, 85.3333358764648, -2.56373429298401, -4.30400943756104, 8.80430889129639, 1.31297707557678, 0.0763358771800995, 1.20610690116882,Starts
0:25/12/2019 17:14:49.392,2.879803, 4_Baseline, 436957.2611152, 3065, 912.719360351563, 1372.1611328125, 703.125, 85.3333358764648, -2.66187906265259, -4.30879735946655, 8.75643348693848, 1.05343508720398, -0.366412222385406, 1.37404584884644,Starts
0:25/12/2019 17:14:49.421,2.908914, 4_Baseline, 436957.2930133, 3064, 913.099243164063, 1374.35900878906, 703.125, 85.3333358764648, -2.62597250938416, -4.2968282699585, 8.78276443481445, 1.34351146221161, -0.580152690410614, 0.763358771800995,Starts
0:25/12/2019 17:14:49.421,2.908981, 4_Baseline, 436957.2931922, 3065, 912.719360351563, 1376.55676269531, 703.125, 85.3333358764648, -2.56134057044983, -4.27528429031372, 8.80191516876221, 1.14503812789917, -0.671755731105804, 0.412213742733002,Starts
0:25/12/2019 17:14:49.422,2.909038, 4_Baseline, 436957.2933302, 3063, 913.479431152344, 1375.09155273438, 703.125, 85.3333358764648, -2.53740286827087, -4.27049684524536, 8.81388378143311, 0.885496199131012, -0.427480906248093, 0.641221344470978,Starts
0:25/12/2019 17:14:49.422,2.909142, 4_Baseline, 436957.2970373, 3063, 913.479431152344, 1378.02197265625, 703.125, 85.3333358764648, -2.57330942153931, -4.29443454742432, 8.78755283355713, 0.702290058135986, -0.702290058135986, 0.778625965118408,Starts
0:25/12/2019 17:14:49.422,2.909195, 4_Baseline, 436957.2991898, 3063, 913.479431152344, 1384.61535644531, 703.125, 85.3333358764648, -2.58049082756042, -4.28485918045044, 8.79712772369385, 0.687022924423218, -0.641221344470978, 0.793893158435822,Starts
0:25/12/2019 17:14:49.422,2.909248, 4_Baseline, 436957.3011788, 3064, 913.099243164063, 1388.27844238281, 703.125, 85.3333358764648, -2.57570314407349, -4.31119108200073, 8.79473400115967, 0.702290058135986, -0.748091578483582, 0.931297719478607,Starts
0:25/12/2019 17:14:49.443,2.930329, 4_Baseline, 436957.3349282, 3063, 913.479431152344, 1386.81323242188, 703.125, 85.3333358764648, -2.60442852973938, -4.32555341720581, 8.81388378143311, 1.02290081977844, -0.641221344470978, 0.992366433143616,Starts
0:25/12/2019 17:14:49.443,2.930372, 4_Baseline, 436957.335124, 3063, 913.479431152344, 1383.8828125, 703.125, 85.3333358764648, -2.59485340118408, -4.31119108200073, 8.81627750396729, 0.870229005813599, -0.7175572514534, 1.05343508720398,Starts
0:25/12/2019 17:14:49.443,2.930398, 4_Baseline, 436957.3353316, 3062, 913.859924316406, 1383.15014648438, 703.125, 85.3333358764648, -2.59006571769714, -4.30879735946655, 8.82345867156982, 1.31297707557678, -0.748091578483582, 1.14503812789917,Starts
0:25/12/2019 17:14:49.443,2.930423, 4_Baseline, 436957.3369424, 3063, 913.479431152344, 1381.68493652344, 703.125, 85.3333358764648, -2.57330942153931, -4.32555341720581, 8.79952144622803, 1.14503812789917, -0.763358771800995, 1.05343508720398,Starts
0:25/12/2019 17:14:49.443,2.930448, 4_Baseline, 436957.3372047, 3061, 914.24072265625, 1376.55676269531, 703.125, 85.3333358764648, -2.54937171936035, -4.31597852706909, 8.825852394104, 1.40458011627197, -0.854961812496185, 1.08396947383881,Starts
0:25/12/2019 17:14:49.469,2.956484, 4_Baseline, 436957.3609185, 3062, 913.859924316406, 1370.69592285156, 703.125, 85.3333358764648, -2.57091569900513, -4.31358480453491, 8.80430889129639, 1.3893129825592, -0.885496199131012, 0.931297719478607,Starts
0:25/12/2019 17:14:49.469,2.956518, 4_Baseline, 436957.3610507, 3063, 913.479431152344, 1367.765625, 703.125, 85.3333358764648, -2.57091569900513, -4.30400943756104, 8.82106494903564, 1.32824432849884, -0.503816783428192, 1.03816795349121,Starts
0:25/12/2019 17:14:49.469,2.956541, 4_Baseline, 436957.3629318, 3062, 913.859924316406, 1361.17211914063, 703.125, 85.3333358764648, -2.54458403587341, -4.31119108200073, 8.81627750396729, 1.20610690116882, -0.320610672235489, 1.40458011627197,Starts
0:25/12/2019 17:14:49.491,2.977976, 4_Baseline, 436957.3847948, 3060, 914.621887207031, 1355.31140136719, 703.125, 85.3333358764648, -2.56134057044983, -4.30640316009521, 8.81867122650146, 1.23664116859436, -0.595419824123383, 1.06870234012604,Starts
0:25/12/2019 17:14:49.517,3.005781, 4_Baseline, 436957.384927, 3062, 913.859924316406, 1349.45056152344, 703.125, 85.3333358764648, -2.58049082756042, -4.31837224960327, 8.82106494903564, 1.34351146221161, -0.7175572514534, 0.748091578483582,Starts
0:25/12/2019 17:14:49.522,3.010349, 4_Baseline, 436957.412698, 3061, 914.24072265625, 1344.32238769531, 703.125, 85.3333358764648, -2.57570314407349, -4.30400943756104, 8.81388378143311, 1.28244268894196, -0.839694678783417, 1.03816795349121,Starts
0:25/12/2019 17:14:49.522,3.010382, 4_Baseline, 436957.4128655, 3062, 913.859924316406, 1344.32238769531, 703.125, 85.3333358764648, -2.57570314407349, -4.31837224960327, 8.85697174072266, 1.41984736919403, -0.412213742733002, 0.900763332843781,Starts
0:25/12/2019 17:14:49.522,3.01041, 4_Baseline, 436957.4148257, 3060, 914.621887207031, 1346.52014160156, 703.125, 85.3333358764648, -2.57091569900513, -4.33034133911133, 8.82106494903564, 1.61832058429718, -0.458015263080597, 0.793893158435822,Starts
0:25/12/2019 17:14:49.522,3.010504, 4_Baseline, 436957.4149794, 3060, 914.621887207031, 1350.91577148438, 703.125, 85.3333358764648, -2.54697775840759, -4.33034133911133, 8.83542823791504, 1.80152666568756, -0.290076345205307, 0.763358771800995,Starts
0:25/12/2019 17:14:49.526,3.014283, 4_Baseline, 436957.4187327, 3060, 914.621887207031, 1350.91577148438, 703.125, 85.3333358764648, -2.55894684791565, -4.31837224960327, 8.8402156829834, 1.72519087791443, -0.152671754360199, 1.03816795349121,Starts
0:25/12/2019 17:14:49.546,3.033811, 4_Baseline, 436957.4352117, 3061, 914.24072265625, 1350.18310546875, 703.125, 85.3333358764648, -2.54458403587341, -4.32555341720581, 8.82106494903564, 1.6946564912796, 0.0458015277981758, 1.11450386047363,Starts
0:25/12/2019 17:14:49.546,3.03386, 4_Baseline, 436957.4355091, 3059, 915.003356933594, 1347.9853515625, 703.125, 85.3333358764648, -2.53979659080505, -4.30640316009521, 8.825852394104, 1.49618315696716, 0, 0.977099239826202,Starts
0:25/12/2019 17:14:49.568,3.056644, 4_Baseline, 436957.459592, 3060, 914.621887207031, 1342.85717773438, 703.125, 85.3333358764648, -2.56373429298401, -4.33273506164551, 8.82106494903564, 1.58778631687164, 0.274809151887894, 0.656488537788391,Starts
0:25/12/2019 17:14:49.569,3.056697, 4_Baseline, 436957.459777, 3059, 915.003356933594, 1339.9267578125, 703.125, 85.3333358764648, -2.54937171936035, -4.31597852706909, 8.80191516876221, 1.61832058429718, 0.610687017440796, 0.931297719478607,Starts
0:25/12/2019 17:14:49.569,3.056738, 4_Baseline, 436957.4615882, 3060, 914.621887207031, 1339.19409179688, 703.125, 85.3333358764648, -2.57809686660767, -4.31358480453491, 8.81388378143311, 1.66412210464478, 0.610687017440796, 0.854961812496185,Starts
0:25/12/2019 17:14:49.569,3.056763, 4_Baseline, 436957.4635985, 3058, 915.385070800781, 1338.46154785156, 703.125, 85.3333358764648, -2.57809686660767, -4.30400943756104, 8.81627750396729, 1.72519087791443, 0.381679385900497, 1.11450386047363,Starts
0:25/12/2019 17:14:49.613,3.101196, 4_Baseline, 436957.499564, 3058, 915.385070800781, 1340.65930175781, 703.125, 85.3333358764648, -2.56134057044983, -4.30879735946655, 8.81149005889893, 2.04580163955688, 0.656488537788391, 0.793893158435822,Starts
0:25/12/2019 17:14:49.613,3.101234, 4_Baseline, 436957.5034898, 3060, 914.621887207031, 1342.85717773438, 703.125, 85.3333358764648, -2.56852173805237, -4.30161571502686, 8.83303451538086, 2.24427485466003, 1.03816795349121, 1.09923660755157,Starts
0:25/12/2019 17:14:49.624,3.112173, 4_Baseline, 436957.5114918, 3059, 915.003356933594, 1345.78759765625, 703.125, 85.3333358764648, -2.55655288696289, -4.30400943756104, 8.8521842956543, 2.42748093605042, 1.46564888954163, 1.08396947383881,Starts
0:25/12/2019 17:14:49.636,3.123564, 4_Baseline, 436957.5294223, 3057, 915.767211914063, 1346.52014160156, 703.125, 85.3333358764648, -2.58767199516296, -4.31597852706909, 8.83542823791504, 2.48854970932007, 1.41984736919403, 1.19083964824677,Starts
0:25/12/2019 17:14:49.636,3.123612, 4_Baseline, 436957.5296859, 3057, 915.767211914063, 1346.52014160156, 703.125, 85.3333358764648, -2.58527827262878, -4.30640316009521, 8.83782196044922, 2.48854970932007, 1.35877859592438, 1.1297709941864,Starts
0:25/12/2019 17:14:49.636,3.123646, 4_Baseline, 436957.5313716, 3059, 915.003356933594, 1345.05493164063, 703.125, 85.3333358764648, -2.61160969734192, -4.30400943756104, 8.82106494903564, 2.65648865699768, 1.80152666568756, 0.854961812496185,Starts
0:25/12/2019 17:14:49.636,3.123672, 4_Baseline, 436957.5316518, 3058, 915.385070800781, 1343.58972167969, 703.125, 85.3333358764648, -2.59964084625244, -4.28007173538208, 8.825852394104, 2.50381684303284, 1.58778631687164, 0.625954210758209,Starts
0:25/12/2019 17:14:49.647,3.134544, 4_Baseline, 436957.5335781, 3057, 915.767211914063, 1344.32238769531, 703.125, 85.3333358764648, -2.6020348072052, -4.26570892333984, 8.82106494903564, 2.71755719184875, 2.04580163955688, 0.854961812496185,Starts
0:25/12/2019 17:14:49.666,3.153695, 4_Baseline, 436957.5594424, 3057, 915.767211914063, 1342.12451171875, 703.125, 85.3333358764648, -2.61160969734192, -4.28485918045044, 8.80430889129639, 2.62595415115356, 1.67938935756683, 0.580152690410614,Starts
0:25/12/2019 17:14:49.666,3.153805, 4_Baseline, 436957.5596978, 3057, 915.767211914063, 1341.39196777344, 703.125, 85.3333358764648, -2.61400365829468, -4.28007173538208, 8.78755283355713, 2.6106870174408, 1.67938935756683, 0.763358771800995,Starts
0:25/12/2019 17:14:49.666,3.153861, 4_Baseline, 436957.5613129, 3058, 915.385070800781, 1340.65930175781, 703.125, 85.3333358764648, -2.62597250938416, -4.27528429031372, 8.79234027862549, 2.67175579071045, 1.4351145029068, 0.824427485466003,Starts
0:25/12/2019 17:14:49.692,3.180182, 4_Baseline, 436957.5832312, 3056, 916.149597167969, 1336.99633789063, 703.125, 85.3333358764648, -2.6020348072052, -4.28246545791626, 8.78515815734863, 2.33587789535522, 1.63358783721924, 0.687022924423218,Starts
0:25/12/2019 17:14:49.692,3.18022, 4_Baseline, 436957.5872463, 3056, 916.149597167969, 1334.06591796875, 703.125, 85.3333358764648, -2.64033508300781, -4.28246545791626, 8.76361465454102, 2, 1.41984736919403, 1.23664116859436,Starts
0:25/12/2019 17:14:49.726,3.213543, 4_Baseline, 436957.6113876, 3056, 916.149597167969, 1335.53112792969, 703.125, 85.3333358764648, -2.82944345474243, -4.25613403320313, 8.74446392059326, 2.03053426742554, 0.946564912796021, 2.79389309883118,Starts
0:25/12/2019 17:14:49.726,3.213579, 4_Baseline, 436957.6115845, 3056, 916.149597167969, 1338.46154785156, 703.125, 85.3333358764648, -2.89168167114258, -4.26570892333984, 8.73249530792236, 1.6946564912796, 0.167938932776451, 3.37404584884644,Starts
0:25/12/2019 17:14:49.726,3.213603, 4_Baseline, 436957.6117867, 3056, 916.149597167969, 1347.9853515625, 703.125, 85.3333358764648, -2.8701376914978, -4.24177122116089, 8.80191516876221, 2.16793894767761, -0.763358771800995, 3.11450386047363,Starts
0:25/12/2019 17:14:49.726,3.213626, 4_Baseline, 436957.6119663, 3055, 916.532348632813, 1362.63732910156, 703.125, 85.3333358764648, -2.86535000801086, -4.23698377609253, 8.76840209960938, 2.45801520347595, -2.04580163955688, 2.68702292442322,Starts
0:25/12/2019 17:14:49.726,3.213659, 4_Baseline, 436957.6161572, 3054, 916.915344238281, 1381.68493652344, 703.125, 85.3333358764648, -2.85816884040833, -4.23698377609253, 8.81149005889893, 2.62595415115356, -2.59541988372803, 2.96183204650879,Starts
0:25/12/2019 17:14:49.726,3.213682, 4_Baseline, 436957.6162982, 3056, 916.149597167969, 1404.39562988281, 703.125, 85.3333358764648, -2.84141230583191, -4.25374031066895, 8.8402156829834, 2.88549613952637, -3.45038175582886, 2.6106870174408,Starts
0:25/12/2019 17:14:49.747,3.235012, 4_Baseline, 436957.6342409, 3055, 916.532348632813, 1428.57141113281, 703.125, 85.3333358764648, -2.69060444831848, -4.26331520080566, 8.84500312805176, 3.11450386047363, -3.93893122673035, 1.83206105232239,Starts
0:25/12/2019 17:14:49.747,3.235046, 4_Baseline, 436957.6361742, 3055, 916.532348632813, 1456.41027832031, 703.125, 85.3333358764648, -2.53261518478394, -4.24655914306641, 8.84500312805176, 3.37404584884644, -4.33587789535522, 1.57251906394959,Starts
0:25/12/2019 17:14:49.747,3.235077, 4_Baseline, 436957.6401442, 3057, 915.767211914063, 1484.2490234375, 703.125, 85.3333358764648, -2.49910235404968, -4.22740888595581, 8.8641529083252, 2.90076327323914, -3.57251906394959, 1.22137403488159,Starts
0:25/12/2019 17:14:49.747,3.235099, 4_Baseline, 436957.6403692, 3054, 916.915344238281, 1513.55310058594, 703.125, 85.3333358764648, -2.45601439476013, -4.21543979644775, 8.86175918579102, 2.68702292442322, -3.57251906394959, 1.58778631687164,Starts
0:25/12/2019 17:14:49.770,3.257433, 4_Baseline, 436957.6602353, 3053, 917.298706054688, 1537.72888183594, 703.125, 85.3333358764648, -2.43686413764954, -4.20586490631104, 8.8521842956543, 1.90839695930481, -2.73282432556152, 1.175572514534,Starts
0:25/12/2019 17:14:49.770,3.257469, 4_Baseline, 436957.6604216, 3054, 916.915344238281, 1555.31140136719, 703.125, 85.3333358764648, -2.39138245582581, -4.18432092666626, 8.83782196044922, 1.57251906394959, -1.89312982559204, 0.946564912796021,Starts
0:25/12/2019 17:14:49.792,3.27992, 4_Baseline, 436957.6840341, 3053, 917.298706054688, 1565.56774902344, 703.125, 85.3333358764648, -2.40574502944946, -4.19389581680298, 8.81627750396729, 1.32824432849884, -0.671755731105804, 0.946564912796021,Starts
0:25/12/2019 17:14:49.792,3.279979, 4_Baseline, 436957.6861754, 3054, 916.915344238281, 1567.765625, 703.125, 85.3333358764648, -2.42728900909424, -4.17953300476074, 8.80909633636475, 0.47328245639801, 0.183206111192703, 0.702290058135986,Starts
0:25/12/2019 17:14:49.792,3.28003, 4_Baseline, 436957.6863492, 3053, 917.298706054688, 1567.03295898438, 703.125, 85.3333358764648, -2.51346492767334, -4.1915020942688, 8.80909633636475, 0.229007631540298, 0.488549619913101, 0.595419824123383,Starts
0:25/12/2019 17:14:49.822,3.309898, 4_Baseline, 436957.7099557, 3053, 917.298706054688, 1561.17211914063, 703.125, 85.3333358764648, -2.56612801551819, -4.20107698440552, 8.77079582214355, 0, 0.916030526161194, 0.595419824123383,Starts
0:25/12/2019 17:14:49.822,3.309954, 4_Baseline, 436957.7101644, 3053, 917.298706054688, 1551.64831542969, 703.125, 85.3333358764648, -2.61160969734192, -4.20586490631104, 8.82106494903564, -0.152671754360199, 0.580152690410614, 0.488549619913101,Starts
0:25/12/2019 17:14:49.823,3.309992, 4_Baseline, 436957.7119613, 3053, 917.298706054688, 1541.39196777344, 703.125, 85.3333358764648, -2.63794136047363, -4.1723518371582, 8.80191516876221, -0.229007631540298, 0.320610672235489, 0.396946579217911,Starts
0:25/12/2019 17:14:49.823,3.31003, 4_Baseline, 436957.7139701, 3052, 917.682434082031, 1526.00732421875, 703.125, 85.3333358764648, -2.72172355651855, -4.21304607391357, 8.81149005889893, -0.671755731105804, -0.488549619913101, 0.503816783428192,Starts
0:25/12/2019 17:14:49.848,3.335452, 4_Baseline, 436957.7339106, 3052, 917.682434082031, 1509.15747070313, 703.125, 85.3333358764648, -2.76241779327393, -4.22740888595581, 8.78755283355713, -0.625954210758209, -1.1297709941864, 0.671755731105804,Starts
0:25/12/2019 17:14:49.848,3.335507, 4_Baseline, 436957.7360102, 3054, 916.915344238281, 1489.37731933594, 703.125, 85.3333358764648, -2.78156781196594, -4.24895286560059, 8.81627750396729, -0.0152671756222844, -1.64885497093201, 0.442748099565506,Starts
0:25/12/2019 17:14:49.871,3.358002, 4_Baseline, 436957.7597961, 3052, 917.682434082031, 1469.59704589844, 703.125, 85.3333358764648, -2.73129868507385, -4.25134658813477, 8.8402156829834, -0.0916030555963516, -2.07633590698242, 0.351145029067993,Starts
0:25/12/2019 17:14:49.882,3.369344, 4_Baseline, 436957.765809, 3052, 917.682434082031, 1453.47985839844, 703.125, 85.3333358764648, -2.72172355651855, -4.21065235137939, 8.83542823791504, -0.198473289608955, -2.21374034881592, 0.732824444770813,Starts
0:25/12/2019 17:14:49.882,3.36938, 4_Baseline, 436957.7660417, 3052, 917.682434082031, 1441.02563476563, 703.125, 85.3333358764648, -2.6882107257843, -4.23459005355835, 8.83542823791504, -0.244274809956551, -2.41221380233765, 0.854961812496185,Starts
0:25/12/2019 17:14:49.882,3.369411, 4_Baseline, 436957.769772, 3051, 918.06640625, 1426.37365722656, 703.125, 85.3333358764648, -2.67624187469482, -4.23698377609253, 8.83782196044922, 0.0458015277981758, -2.41221380233765, 0.351145029067993,Starts
0:25/12/2019 17:14:49.882,3.369437, 4_Baseline, 436957.7699364, 3051, 918.06640625, 1415.38464355469, 703.125, 85.3333358764648, -2.62597250938416, -4.24416494369507, 8.85457801818848, 0.305343508720398, -2.67175579071045, 0.580152690410614,Starts
0:25/12/2019 17:14:49.892,3.380539, 4_Baseline, 436957.7838251, 3050, 918.450744628906, 1402.93041992188, 703.125, 85.3333358764648, -2.6020348072052, -4.24177122116089, 8.83064079284668, 0.320610672235489, -2.24427485466003, 0.625954210758209,Starts
0:25/12/2019 17:14:49.892,3.380596, 4_Baseline, 436957.7856959, 3051, 918.06640625, 1392.67395019531, 703.125, 85.3333358764648, -2.57091569900513, -4.25613403320313, 8.80191516876221, 0.274809151887894, -2.44274806976318, 1.03816795349121,Starts
0:25/12/2019 17:14:49.925,3.413597, 4_Baseline, 436957.8096365, 3050, 918.450744628906, 1381.68493652344, 703.125, 85.3333358764648, -2.55894684791565, -4.26570892333984, 8.85936546325684, 0.412213742733002, -2.2595419883728, 0.793893158435822,Starts
0:25/12/2019 17:14:49.925,3.413647, 4_Baseline, 436957.8098172, 3050, 918.450744628906, 1374.35900878906, 703.125, 85.3333358764648, -2.58049082756042, -4.25613403320313, 8.8521842956543, 0.595419824123383, -2.10687017440796, 0.961832046508789,Starts
0:25/12/2019 17:14:49.926,3.413689, 4_Baseline, 436957.8116703, 3050, 918.450744628906, 1371.42858886719, 703.125, 85.3333358764648, -2.55894684791565, -4.24416494369507, 8.84739685058594, 0.641221344470978, -1.83206105232239, 0.687022924423218,Starts
0:25/12/2019 17:14:49.926,3.413725, 4_Baseline, 436957.8120005, 3049, 918.835388183594, 1370.69592285156, 703.125, 85.3333358764648, -2.53022146224976, -4.2585277557373, 8.86175918579102, 0.824427485466003, -1.40458011627197, 0.610687017440796,Starts
0:25/12/2019 17:14:49.948,3.43588, 4_Baseline, 436957.833793, 3049, 918.835388183594, 1369.23071289063, 703.125, 85.3333358764648, -2.54458403587341, -4.24895286560059, 8.87851619720459, 0.885496199131012, -1.34351146221161, 0.656488537788391,Starts
0:25/12/2019 17:14:49.948,3.43592, 4_Baseline, 436957.8355919, 3050, 918.450744628906, 1365.56774902344, 703.125, 85.3333358764648, -2.54458403587341, -4.24655914306641, 8.86654663085938, 0.625954210758209, -0.610687017440796, 0.580152690410614,Starts
0:25/12/2019 17:14:49.948,3.435944, 4_Baseline, 436957.8357378, 3048, 919.220397949219, 1356.77661132813, 703.125, 85.3333358764648, -2.53261518478394, -4.24895286560059, 8.8641529083252, 0.7175572514534, -0.183206111192703, 0.488549619913101,Starts
0:25/12/2019 17:14:49.994,3.481749, 4_Baseline, 436957.8815958, 3049, 918.835388183594, 1348.71789550781, 703.125, 85.3333358764648, -2.55655288696289, -4.25374031066895, 8.88090991973877, 0.793893158435822, -0.0610687024891377, 0.625954210758209,Starts
0:25/12/2019 17:14:50.004,3.49188, 4_Baseline, 436957.8974032, 3049, 918.835388183594, 1345.05493164063, 703.125, 85.3333358764648, -2.56852173805237, -4.25374031066895, 8.85457801818848, 0.992366433143616, 0.320610672235489, 0.549618303775787,Starts
0:25/12/2019 17:14:50.004,3.491935, 4_Baseline, 436957.8975912, 3049, 918.835388183594, 1343.58972167969, 703.125, 85.3333358764648, -2.58767199516296, -4.24177122116089, 8.84260940551758, 0.977099239826202, 0.0152671756222844, 0.7175572514534,Starts
0:25/12/2019 17:14:50.015,3.503345, 4_Baseline, 436957.9014166, 3048, 919.220397949219, 1347.25280761719, 703.125, 85.3333358764648, -2.61400365829468, -4.26092147827148, 8.83542823791504, 1.22137403488159, 0.534351170063019, 0.793893158435822,Starts
0:25/12/2019 17:14:50.015,3.50338, 4_Baseline, 436957.9033941, 3048, 919.220397949219, 1353.84619140625, 703.125, 85.3333358764648, -2.63794136047363, -4.26331520080566, 8.84739685058594, 1.55725193023682, 0.427480906248093, 0.916030526161194,Starts
0:25/12/2019 17:14:50.015,3.503405, 4_Baseline, 436957.9036037, 3047, 919.605651855469, 1360.43957519531, 703.125, 85.3333358764648, -2.65469789505005, -4.23219633102417, 8.82106494903564, 1.26717555522919, -0.183206111192703, 0.824427485466003,Starts
0:25/12/2019 17:14:50.016,3.503439, 4_Baseline, 436957.9037485, 3049, 918.835388183594, 1368.49816894531, 703.125, 85.3333358764648, -2.63794136047363, -4.22501516342163, 8.84500312805176, 1.49618315696716, 0.0305343512445688, 0.763358771800995,Starts
0:25/12/2019 17:14:50.016,3.503462, 4_Baseline, 436957.9055662, 3047, 919.605651855469, 1373.62634277344, 695.281982421875, 86.2959213256836, -2.63075995445251, -4.20347118377686, 8.84500312805176, 1.46564888954163, -0.0305343512445688, 0.916030526161194,Starts
0:25/12/2019 17:14:50.049,3.536562, 4_Baseline, 436957.9333892, 3047, 919.605651855469, 1373.62634277344, 695.281982421875, 86.2959213256836, -2.65469789505005, -4.20107698440552, 8.825852394104, 1.40458011627197, -0.0610687024891377, 0.793893158435822,Starts
0:25/12/2019 17:14:50.049,3.536614, 4_Baseline, 436957.93361, 3048, 919.220397949219, 1371.42858886719, 695.281982421875, 86.2959213256836, -2.66666674613953, -4.20347118377686, 8.84260940551758, 1.19083964824677, -0.244274809956551, 0.732824444770813,Starts
0:25/12/2019 17:14:50.049,3.536748, 4_Baseline, 436957.9354047, 3047, 919.605651855469, 1371.42858886719, 695.281982421875, 86.2959213256836, -2.65709161758423, -4.19389581680298, 8.825852394104, 1.35877859592438, -0.549618303775787, 0.702290058135986,Starts
0:25/12/2019 17:14:50.049,3.536794, 4_Baseline, 436957.9393954, 3046, 919.991271972656, 1373.62634277344, 695.281982421875, 86.2959213256836, -2.64991021156311, -4.20825862884521, 8.81388378143311, 1.19083964824677, -0.80916029214859, 0.900763332843781,Starts
0:25/12/2019 17:14:50.049,3.536837, 4_Baseline, 436957.9394909, 3046, 919.991271972656, 1379.48718261719, 695.281982421875, 86.2959213256836, -2.64512276649475, -4.20107698440552, 8.81149005889893, 0.763358771800995, -0.854961812496185, 0.687022924423218,Starts
0:25/12/2019 17:14:50.071,3.558681, 4_Baseline, 436957.9593676, 3046, 919.991271972656, 1381.68493652344, 695.281982421875, 86.2959213256836, -2.63315391540527, -4.22740888595581, 8.83064079284668, 0.80916029214859, -1.00763356685638, 0.946564912796021,Starts
0:25/12/2019 17:14:50.094,3.581302, 4_Baseline, 436957.9872048, 3047, 919.605651855469, 1384.61535644531, 695.281982421875, 86.2959213256836, -2.678635597229, -4.22262096405029, 8.79473400115967, 0.854961812496185, -1.28244268894196, 0.80916029214859,Starts
0:25/12/2019 17:14:50.094,3.581354, 4_Baseline, 436957.987412, 3046, 919.991271972656, 1388.27844238281, 695.281982421875, 86.2959213256836, -2.63315391540527, -4.22262096405029, 8.82106494903564, 0.625954210758209, -1.11450386047363, 0.244274809956551,Starts
0:25/12/2019 17:14:50.094,3.58139, 4_Baseline, 436957.9875686, 3045, 920.377258300781, 1391.94140625, 695.281982421875, 86.2959213256836, -2.63075995445251, -4.23219633102417, 8.81627750396729, 0.702290058135986, -1.06870234012604, 0.564885497093201,Starts
0:25/12/2019 17:14:50.105,3.592721, 4_Baseline, 436957.99117, 3045, 920.377258300781, 1392.67395019531, 695.281982421875, 86.2959213256836, -2.61639738082886, -4.25613403320313, 8.83303451538086, 0.351145029067993, -1.3893129825592, 0.549618303775787,Starts
0:25/12/2019 17:14:50.105,3.592803, 4_Baseline, 436957.9913507, 3045, 920.377258300781, 1389.01098632813, 695.281982421875, 86.2959213256836, -2.60921597480774, -4.24177122116089, 8.84260940551758, 0.381679385900497, -1.16030538082123, 0.671755731105804,Starts
0:25/12/2019 17:14:50.116,3.603918, 4_Baseline, 436958.0091404, 3045, 920.377258300781, 1381.68493652344, 695.281982421875, 86.2959213256836, -2.61639738082886, -4.24416494369507, 8.81867122650146, 0.458015263080597, -0.992366433143616, 0.641221344470978,Starts
0:25/12/2019 17:14:50.136,3.623444, 4_Baseline, 436958.0112469, 3045, 920.377258300781, 1372.1611328125, 695.281982421875, 86.2959213256836, -2.63315391540527, -4.25374031066895, 8.83303451538086, 0.732824444770813, -1.28244268894196, 0.839694678783417,Starts
0:25/12/2019 17:14:50.155,3.642194, 4_Baseline, 436958.0350705, 3044, 920.763488769531, 1365.56774902344, 695.281982421875, 86.2959213256836, -2.65709161758423, -4.2585277557373, 8.84739685058594, 0.458015263080597, -1.08396947383881, 0.885496199131012,Starts
0:25/12/2019 17:14:50.155,3.642237, 4_Baseline, 436958.0352873, 3044, 920.763488769531, 1359.70690917969, 695.281982421875, 86.2959213256836, -2.62357878684998, -4.23459005355835, 8.84979057312012, 0.702290058135986, -1.23664116859436, 0.702290058135986,Starts
0:25/12/2019 17:14:50.155,3.642265, 4_Baseline, 436958.0372706, 3043, 921.150085449219, 1353.84619140625, 695.281982421875, 86.2959213256836, -2.60442852973938, -4.24895286560059, 8.80670261383057, 0.564885497093201, -0.977099239826202, 0.625954210758209,Starts
0:25/12/2019 17:14:50.155,3.642304, 4_Baseline, 436958.0410339, 3044, 920.763488769531, 1347.9853515625, 695.281982421875, 86.2959213256836, -2.61879110336304, -4.23937749862671, 8.8402156829834, 0.488549619913101, -0.778625965118408, 0.595419824123383,Starts
0:25/12/2019 17:14:50.155,3.642382, 4_Baseline, 436958.045011, 3043, 921.150085449219, 1344.32238769531, 695.281982421875, 86.2959213256836, -2.6020348072052, -4.25134658813477, 8.84739685058594, 0.580152690410614, -0.839694678783417, 0.320610672235489,Starts
0:25/12/2019 17:14:50.177,3.664444, 4_Baseline, 436958.0611324, 3045, 920.377258300781, 1343.58972167969, 695.281982421875, 86.2959213256836, -2.59964084625244, -4.23459005355835, 8.8402156829834, 0.183206111192703, -0.870229005813599, 0.488549619913101,Starts
0:25/12/2019 17:14:50.177,3.664511, 4_Baseline, 436958.06133, 3043, 921.150085449219, 1346.52014160156, 695.281982421875, 86.2959213256836, -2.59724712371826, -4.23937749862671, 8.83303451538086, 0.671755731105804, -0.793893158435822, 0.671755731105804,Starts
0:25/12/2019 17:14:50.177,3.664607, 4_Baseline, 436958.0615647, 3043, 921.150085449219, 1350.18310546875, 695.281982421875, 86.2959213256836, -2.60442852973938, -4.24895286560059, 8.80670261383057, 0.702290058135986, -0.870229005813599, 0.47328245639801,Starts
0:25/12/2019 17:14:50.199,3.686732, 4_Baseline, 436958.085012, 3042, 921.537048339844, 1350.18310546875, 695.281982421875, 86.2959213256836, -2.63554763793945, -4.2585277557373, 8.83303451538086, 0.534351170063019, -0.961832046508789, 0.503816783428192,Starts
0:25/12/2019 17:14:50.199,3.686764, 4_Baseline, 436958.0852128, 3044, 920.763488769531, 1350.91577148438, 695.281982421875, 86.2959213256836, -2.62118482589722, -4.23937749862671, 8.825852394104, 0.47328245639801, -0.916030526161194, 0.595419824123383,Starts
0:25/12/2019 17:14:50.199,3.686792, 4_Baseline, 436958.0908864, 3042, 921.537048339844, 1351.64831542969, 695.281982421875, 86.2959213256836, -2.61879110336304, -4.23219633102417, 8.8521842956543, 0.656488537788391, -0.793893158435822, 0.687022924423218,Starts
0:25/12/2019 17:14:50.222,3.709263, 4_Baseline, 436958.1108689, 3042, 921.537048339844, 1353.84619140625, 695.281982421875, 86.2959213256836, -2.61639738082886, -4.24177122116089, 8.85697174072266, 0.610687017440796, -0.763358771800995, 0.763358771800995,Starts
0:25/12/2019 17:14:50.222,3.709318, 4_Baseline, 436958.1128237, 3043, 921.150085449219, 1356.0439453125, 695.281982421875, 86.2959213256836, -2.63075995445251, -4.25374031066895, 8.82345867156982, 0.595419824123383, -0.961832046508789, 0.610687017440796,Starts
0:25/12/2019 17:14:50.222,3.70936, 4_Baseline, 436958.114895, 3042, 921.537048339844, 1356.77661132813, 695.281982421875, 86.2959213256836, -2.62357878684998, -4.24895286560059, 8.84500312805176, 0.641221344470978, -0.519083976745605, 0.854961812496185,Starts
0:25/12/2019 17:14:50.244,3.731314, 4_Baseline, 436958.1348046, 3040, 922.311828613281, 1357.50915527344, 695.281982421875, 86.2959213256836, -2.62836623191834, -4.25134658813477, 8.82106494903564, 0.80916029214859, -0.824427485466003, 0.732824444770813,Starts
0:25/12/2019 17:14:50.244,3.73135, 4_Baseline, 436958.1350226, 3042, 921.537048339844, 1356.0439453125, 695.281982421875, 86.2959213256836, -2.65469789505005, -4.22022724151611, 8.83064079284668, 0.748091578483582, -0.671755731105804, 0.580152690410614,Starts
0:25/12/2019 17:14:50.266,3.754012, 4_Baseline, 436958.158729, 3041, 921.924255371094, 1351.64831542969, 695.281982421875, 86.2959213256836, -2.62836623191834, -4.22740888595581, 8.84739685058594, 0.442748099565506, -0.854961812496185, 0.80916029214859,Starts
0:25/12/2019 17:14:50.266,3.754053, 4_Baseline, 436958.1588886, 3041, 921.924255371094, 1347.9853515625, 695.281982421875, 86.2959213256836, -2.62597250938416, -4.22501516342163, 8.84979057312012, 0.488549619913101, -0.763358771800995, 0.687022924423218,Starts
0:25/12/2019 17:14:50.266,3.75408, 4_Baseline, 436958.1608722, 3041, 921.924255371094, 1345.05493164063, 695.281982421875, 86.2959213256836, -2.61400365829468, -4.21783351898193, 8.83303451538086, 0.442748099565506, -0.610687017440796, 0.870229005813599,Starts
0:25/12/2019 17:14:50.266,3.754106, 4_Baseline, 436958.1611938, 3041, 921.924255371094, 1345.78759765625, 695.281982421875, 86.2959213256836, -2.61400365829468, -4.23459005355835, 8.8402156829834, 0.244274809956551, -1.09923660755157, 0.625954210758209,Starts
0:25/12/2019 17:14:50.299,3.787018, 4_Baseline, 436958.1886893, 3040, 922.311828613281, 1345.78759765625, 695.281982421875, 86.2959213256836, -2.6020348072052, -4.22022724151611, 8.80430889129639, 0.47328245639801, -1.06870234012604, 0.396946579217911,Starts
0:25/12/2019 17:14:50.299,3.787052, 4_Baseline, 436958.188962, 3041, 921.924255371094, 1345.78759765625, 695.281982421875, 86.2959213256836, -2.61160969734192, -4.23698377609253, 8.79952144622803, 0.534351170063019, -1.23664116859436, 0.381679385900497,Starts
0:25/12/2019 17:14:50.299,3.787078, 4_Baseline, 436958.1926725, 3040, 922.311828613281, 1342.12451171875, 695.281982421875, 86.2959213256836, -2.6020348072052, -4.23937749862671, 8.83064079284668, 0.152671754360199, -0.946564912796021, 0.351145029067993,Starts
0:25/12/2019 17:14:50.299,3.787101, 4_Baseline, 436958.1928869, 3040, 922.311828613281, 1341.39196777344, 695.281982421875, 86.2959213256836, -2.62836623191834, -4.23459005355835, 8.81388378143311, 0.442748099565506, -1.20610690116882, 0.595419824123383,Starts
0:25/12/2019 17:14:50.319,3.806876, 4_Baseline, 436958.2086422, 3040, 922.311828613281, 1342.85717773438, 695.281982421875, 86.2959213256836, -2.6020348072052, -4.22980260848999, 8.83542823791504, 0.122137404978275, -0.793893158435822, 0.503816783428192,Starts
0:25/12/2019 17:14:50.319,3.806913, 4_Baseline, 436958.2105762, 3040, 922.311828613281, 1345.78759765625, 695.281982421875, 86.2959213256836, -2.62597250938416, -4.23698377609253, 8.84500312805176, 0.0458015277981758, -1.1297709941864, 0.442748099565506,Starts
0:25/12/2019 17:14:50.319,3.806936, 4_Baseline, 436958.2107543, 3040, 922.311828613281, 1348.71789550781, 695.281982421875, 86.2959213256836, -2.62597250938416, -4.22740888595581, 8.84739685058594, 0.0916030555963516, -1.23664116859436, 0.610687017440796,Starts
0:25/12/2019 17:14:50.352,3.84026, 4_Baseline, 436958.2385572, 3039, 922.69970703125, 1352.38098144531, 695.281982421875, 86.2959213256836, -2.62836623191834, -4.23937749862671, 8.84500312805176, -0.198473289608955, -1.63358783721924, 0.427480906248093,Starts
0:25/12/2019 17:14:50.364,3.851405, 4_Baseline, 436958.248539, 3041, 921.924255371094, 1356.77661132813, 695.281982421875, 86.2959213256836, -2.61639738082886, -4.24416494369507, 8.85697174072266, -0.122137404978275, -1.45038163661957, 0.503816783428192,Starts
0:25/12/2019 17:14:50.364,3.851443, 4_Baseline, 436958.2525003, 3039, 922.69970703125, 1361.17211914063, 695.281982421875, 86.2959213256836, -2.61639738082886, -4.23219633102417, 8.8402156829834, -0.320610672235489, -1.40458011627197, 0.213740453124046,Starts
0:25/12/2019 17:14:50.375,3.862395, 4_Baseline, 436958.2661279, 3038, 923.087951660156, 1367.03295898438, 695.281982421875, 86.2959213256836, -2.59964084625244, -4.26570892333984, 8.82824611663818, -0.305343508720398, -1.63358783721924, 0.320610672235489,Starts
0:25/12/2019 17:14:50.375,3.86243, 4_Baseline, 436958.2680867, 3039, 922.69970703125, 1376.55676269531, 695.281982421875, 86.2959213256836, -2.58527827262878, -4.25374031066895, 8.87851619720459, -0.244274809956551, -1.4351145029068, -0.0610687024891377,Starts
0:25/12/2019 17:14:50.375,3.862463, 4_Baseline, 436958.2682894, 3039, 922.69970703125, 1391.94140625, 695.281982421875, 86.2959213256836, -2.58527827262878, -4.25374031066895, 8.84260940551758, -0.610687017440796, -1.49618315696716, -0.0610687024891377,Starts
0:25/12/2019 17:14:50.375,3.862487, 4_Baseline, 436958.2684652, 3040, 922.311828613281, 1412.45422363281, 695.281982421875, 86.2959213256836, -2.58767199516296, -4.22022724151611, 8.83782196044922, -0.595419824123383, -1.54198467731476, 0.106870226562023,Starts
0:25/12/2019 17:14:50.397,3.884767, 4_Baseline, 436958.284178, 3038, 923.087951660156, 1437.36267089844, 695.281982421875, 86.2959213256836, -2.58049082756042, -4.23937749862671, 8.80909633636475, -0.687022924423218, -1.20610690116882, 0.106870226562023,Starts
0:25/12/2019 17:14:50.397,3.884822, 4_Baseline, 436958.2880283, 3038, 923.087951660156, 1465.93408203125, 695.281982421875, 86.2959213256836, -2.57570314407349, -4.25134658813477, 8.81867122650146, -0.580152690410614, -0.931297719478607, -0.137404575943947,Starts
0:25/12/2019 17:14:50.397,3.884902, 4_Baseline, 436958.2882761, 3038, 923.087951660156, 1494.50549316406, 695.281982421875, 86.2959213256836, -2.56852173805237, -4.2585277557373, 8.82106494903564, -0.47328245639801, -1.19083964824677, 0.244274809956551,Starts
0:25/12/2019 17:14:50.420,3.907618, 4_Baseline, 436958.3091043, 3038, 923.087951660156, 1522.34436035156, 695.281982421875, 86.2959213256836, -2.6020348072052, -4.27528429031372, 8.81627750396729, -0.152671754360199, -1.16030538082123, 0.305343508720398,Starts
0:25/12/2019 17:14:50.420,3.907654, 4_Baseline, 436958.3110037, 3037, 923.476501464844, 1545.78759765625, 695.281982421875, 86.2959213256836, -2.60682225227356, -4.28964710235596, 8.79712772369385, -0.0305343512445688, -0.824427485466003, 0.778625965118408,Starts
0:25/12/2019 17:14:50.420,3.907678, 4_Baseline, 436958.3111799, 3037, 923.476501464844, 1565.56774902344, 695.281982421875, 86.2959213256836, -2.63794136047363, -4.28485918045044, 8.81149005889893, -0.0763358771800995, -0.778625965118408, 0.549618303775787,Starts
0:25/12/2019 17:14:50.443,3.930127, 4_Baseline, 436958.335192, 3038, 923.087951660156, 1581.68493652344, 695.281982421875, 86.2959213256836, -2.65709161758423, -4.28485918045044, 8.8402156829834, -0.137404575943947, -0.977099239826202, 0.702290058135986,Starts
0:25/12/2019 17:14:50.443,3.93016, 4_Baseline, 436958.3353278, 3038, 923.087951660156, 1592.67395019531, 695.281982421875, 86.2959213256836, -2.65948534011841, -4.27049684524536, 8.81388378143311, 0.0763358771800995, -1.45038163661957, 0.671755731105804,Starts
0:25/12/2019 17:14:50.443,3.930185, 4_Baseline, 436958.3369463, 3037, 923.476501464844, 1600, 695.281982421875, 86.2959213256836, -2.67624187469482, -4.26092147827148, 8.83064079284668, -0.106870226562023, -1.31297707557678, 0.702290058135986,Starts
0:25/12/2019 17:14:50.476,3.962929, 4_Baseline, 436958.36094, 3037, 923.476501464844, 1597.80224609375, 695.281982421875, 86.2959213256836, -2.64033508300781, -4.24655914306641, 8.8402156829834, 0.0152671756222844, -1.51145040988922, 0.671755731105804,Starts
0:25/12/2019 17:14:50.476,3.962981, 4_Baseline, 436958.3639066, 3038, 923.087951660156, 1594.13916015625, 695.281982421875, 86.2959213256836, -2.63554763793945, -4.28964710235596, 8.83782196044922, 0.396946579217911, -1.66412210464478, 0.7175572514534,Starts
0:25/12/2019 17:14:50.476,3.963023, 4_Baseline, 436958.3639985, 3037, 923.476501464844, 1584.61535644531, 695.281982421875, 86.2959213256836, -2.61160969734192, -4.26810312271118, 8.82345867156982, 0.7175572514534, -1.22137403488159, 0.641221344470978,Starts
0:25/12/2019 17:14:50.498,3.985493, 4_Baseline, 436958.3848229, 3036, 923.865356445313, 1570.69592285156, 695.281982421875, 86.2959213256836, -2.59724712371826, -4.2776780128479, 8.825852394104, 0.503816783428192, -1.40458011627197, 1.06870234012604,Starts
0:25/12/2019 17:14:50.498,3.985534, 4_Baseline, 436958.3850022, 3038, 923.087951660156, 1551.64831542969, 695.281982421875, 86.2959213256836, -2.58049082756042, -4.25613403320313, 8.83782196044922, 0.47328245639801, -0.946564912796021, 1.09923660755157,Starts
0:25/12/2019 17:14:50.509,3.99631, 4_Baseline, 436958.3977763, 3036, 923.865356445313, 1531.8681640625, 695.281982421875, 86.2959213256836, -2.59485340118408, -4.25613403320313, 8.81627750396729, 0.885496199131012, -1.35877859592438, 1.4351145029068,Starts
0:25/12/2019 17:14:50.509,3.996346, 4_Baseline, 436958.3979233, 3036, 923.865356445313, 1512.82055664063, 695.281982421875, 86.2959213256836, -2.5828845500946, -4.27289056777954, 8.82345867156982, 1.14503812789917, -1.02290081977844, 1.23664116859436,Starts
0:25/12/2019 17:14:50.509,3.996371, 4_Baseline, 436958.3999642, 3036, 923.865356445313, 1493.04028320313, 695.281982421875, 86.2959213256836, -2.58527827262878, -4.25134658813477, 8.81867122650146, 1.32824432849884, -0.900763332843781, 1.45038163661957,Starts
0:25/12/2019 17:14:50.553,4.04149, 4_Baseline, 436958.4376538, 3036, 923.865356445313, 1472.52746582031, 695.281982421875, 86.2959213256836, -2.56373429298401, -4.25613403320313, 8.82824611663818, 1.19083964824677, -0.427480906248093, 1.35877859592438,Starts
0:25/12/2019 17:14:50.553,4.041526, 4_Baseline, 436958.4378648, 3036, 923.865356445313, 1451.28210449219, 695.281982421875, 86.2959213256836, -2.56373429298401, -4.23698377609253, 8.83303451538086, 1.19083964824677, -0.549618303775787, 1.34351146221161,Starts
0:25/12/2019 17:14:50.553,4.041549, 4_Baseline, 436958.4397891, 3036, 923.865356445313, 1432.96704101563, 695.281982421875, 86.2959213256836, -2.56134057044983, -4.24416494369507, 8.82345867156982, 0.778625965118408, -0.824427485466003, 1.29770994186401,Starts
0:25/12/2019 17:14:50.553,4.041573, 4_Baseline, 436958.4399616, 3036, 923.865356445313, 1416.84985351563, 695.281982421875, 86.2959213256836, -2.6020348072052, -4.23698377609253, 8.80909633636475, 1.00763356685638, -0.519083976745605, 1.32824432849884,Starts
0:25/12/2019 17:14:50.564,4.052094, 4_Baseline, 436958.4586835, 3036, 923.865356445313, 1405.12817382813, 695.281982421875, 86.2959213256836, -2.59964084625244, -4.23937749862671, 8.82106494903564, 1.175572514534, -0.793893158435822, 1.20610690116882,Starts
0:25/12/2019 17:14:50.594,4.081794, 4_Baseline, 436958.4845796, 3035, 924.254577636719, 1390.47619628906, 695.281982421875, 86.2959213256836, -2.62357878684998, -4.24655914306641, 8.82345867156982, 0.748091578483582, -0.778625965118408, 1.16030538082123,Starts
0:25/12/2019 17:14:50.594,4.081831, 4_Baseline, 436958.4865442, 3037, 923.476501464844, 1375.82421875, 695.281982421875, 86.2959213256836, -2.61639738082886, -4.21304607391357, 8.82824611663818, 0.427480906248093, -0.763358771800995, 0.977099239826202,Starts
0:25/12/2019 17:14:50.594,4.081856, 4_Baseline, 436958.486695, 3036, 923.865356445313, 1364.1025390625, 695.281982421875, 86.2959213256836, -2.61160969734192, -4.21783351898193, 8.8402156829834, 0.381679385900497, -0.763358771800995, 0.732824444770813,Starts
0:25/12/2019 17:14:50.620,4.108345, 4_Baseline, 436958.5105495, 3035, 924.254577636719, 1354.57873535156, 695.281982421875, 86.2959213256836, -2.62597250938416, -4.21783351898193, 8.84739685058594, -0.0458015277981758, -0.931297719478607, 0.763358771800995,Starts
0:25/12/2019 17:14:50.620,4.108395, 4_Baseline, 436958.510684, 3036, 923.865356445313, 1353.11352539063, 695.281982421875, 86.2959213256836, -2.60442852973938, -4.24895286560059, 8.83064079284668, 0.106870226562023, -0.992366433143616, 0.748091578483582,Starts
0:25/12/2019 17:14:50.620,4.108434, 4_Baseline, 436958.5108018, 3036, 923.865356445313, 1350.18310546875, 695.281982421875, 86.2959213256836, -2.59724712371826, -4.26092147827148, 8.81149005889893, 0.427480906248093, -0.992366433143616, 0.641221344470978,Starts
0:25/12/2019 17:14:50.620,4.108471, 4_Baseline, 436958.5124624, 3036, 923.865356445313, 1347.25280761719, 695.281982421875, 86.2959213256836, -2.58049082756042, -4.26331520080566, 8.80909633636475, 0.519083976745605, -1.22137403488159, 0.793893158435822,Starts
0:25/12/2019 17:14:50.620,4.108525, 4_Baseline, 436958.514387, 3036, 923.865356445313, 1345.05493164063, 695.281982421875, 86.2959213256836, -2.59964084625244, -4.24416494369507, 8.82824611663818, 0.381679385900497, -1.20610690116882, 1.11450386047363,Starts
0:25/12/2019 17:14:50.621,4.108569, 4_Baseline, 436958.5145874, 3035, 924.254577636719, 1347.9853515625, 695.281982421875, 86.2959213256836, -2.6020348072052, -4.24895286560059, 8.81149005889893, 0.595419824123383, -0.977099239826202, 0.763358771800995,Starts
0:25/12/2019 17:14:50.621,4.108603, 4_Baseline, 436958.5147815, 3037, 923.476501464844, 1349.45056152344, 695.281982421875, 86.2959213256836, -2.61400365829468, -4.27289056777954, 8.82106494903564, 0.687022924423218, -0.7175572514534, 0.977099239826202,Starts
0:25/12/2019 17:14:50.649,4.137199, 4_Baseline, 436958.5335903, 3035, 924.254577636719, 1348.71789550781, 695.281982421875, 86.2959213256836, -2.62597250938416, -4.26810312271118, 8.81388378143311, 0.916030526161194, -1.06870234012604, 1.1297709941864,Starts
0:25/12/2019 17:14:50.649,4.137265, 4_Baseline, 436958.5414053, 3036, 923.865356445313, 1352.38098144531, 695.281982421875, 86.2959213256836, -2.61160969734192, -4.26331520080566, 8.82824611663818, 1.03816795349121, -0.916030526161194, 0.870229005813599,Starts
0:25/12/2019 17:14:50.688,4.17618, 4_Baseline, 436958.5732947, 3035, 924.254577636719, 1355.31140136719, 695.281982421875, 86.2959213256836, -2.55655288696289, -4.26092147827148, 8.87612247467041, 1.03816795349121, -0.885496199131012, 0.885496199131012,Starts
0:25/12/2019 17:14:50.688,4.176251, 4_Baseline, 436958.5735014, 3037, 923.476501464844, 1361.17211914063, 695.281982421875, 86.2959213256836, -2.56134057044983, -4.24177122116089, 8.86894035339355, 1.02290081977844, -0.778625965118408, 0.900763332843781,Starts
0:25/12/2019 17:14:50.688,4.17631, 4_Baseline, 436958.5752651, 3036, 923.865356445313, 1365.56774902344, 695.281982421875, 86.2959213256836, -2.58767199516296, -4.28007173538208, 8.84500312805176, 1.03816795349121, -0.763358771800995, 0.534351170063019,Starts
0:25/12/2019 17:14:50.689,4.176372, 4_Baseline, 436958.5772499, 3035, 924.254577636719, 1368.49816894531, 695.281982421875, 86.2959213256836, -2.58527827262878, -4.24895286560059, 8.83542823791504, 1.32824432849884, -0.47328245639801, 0.427480906248093,Starts
0:25/12/2019 17:14:50.689,4.176404, 4_Baseline, 436958.5793323, 3035, 924.254577636719, 1371.42858886719, 695.281982421875, 86.2959213256836, -2.51825261116028, -4.24177122116089, 8.86894035339355, 1.19083964824677, -0.290076345205307, 0.167938932776451,Starts
0:25/12/2019 17:14:50.722,4.209859, 4_Baseline, 436958.6152068, 3037, 923.476501464844, 1374.35900878906, 695.281982421875, 86.2959213256836, -2.50149607658386, -4.28007173538208, 8.86894035339355, 1.37404584884644, 0.748091578483582, 0.183206111192703,Starts
0:25/12/2019 17:14:50.722,4.20989, 4_Baseline, 436958.6153503, 3036, 923.865356445313, 1377.28942871094, 687.5, 87.2727279663086, -2.52782773971558, -4.26570892333984, 8.84979057312012, 1.61832058429718, 1.16030538082123, 0.580152690410614,Starts
0:25/12/2019 17:14:50.752,4.239971, 4_Baseline, 436958.6311724, 3036, 923.865356445313, 1380.95239257813, 687.5, 87.2727279663086, -2.54219031333923, -4.28246545791626, 8.84739685058594, 1.80152666568756, 1.45038163661957, 0.198473289608955,Starts
0:25/12/2019 17:14:50.752,4.240003, 4_Baseline, 436958.6331758, 3035, 924.254577636719, 1381.68493652344, 687.5, 87.2727279663086, -2.55894684791565, -4.28485918045044, 8.84739685058594, 1.9541984796524, 1.61832058429718, 0.458015263080597,Starts
0:25/12/2019 17:14:50.752,4.240026, 4_Baseline, 436958.6334307, 3037, 923.476501464844, 1382.41760253906, 687.5, 87.2727279663086, -2.61639738082886, -4.26331520080566, 8.825852394104, 1.96946561336517, 1.81679391860962, 0.412213742733002,Starts
0:25/12/2019 17:14:50.752,4.240051, 4_Baseline, 436958.635193, 3035, 924.254577636719, 1380.2197265625, 687.5, 87.2727279663086, -2.64512276649475, -4.26331520080566, 8.83064079284668, 2.38167929649353, 1.60305345058441, 0.366412222385406,Starts
0:25/12/2019 17:14:50.752,4.24008, 4_Baseline, 436958.6371331, 3036, 923.865356445313, 1377.28942871094, 687.5, 87.2727279663086, -2.64991021156311, -4.2776780128479, 8.82345867156982, 2.45801520347595, 1.83206105232239, 0.549618303775787,Starts
0:25/12/2019 17:14:50.779,4.266995, 4_Baseline, 436958.6626358, 3035, 924.254577636719, 1374.35900878906, 687.5, 87.2727279663086, -2.65709161758423, -4.26331520080566, 8.85457801818848, 2.65648865699768, 2, 0.549618303775787,Starts
0:25/12/2019 17:14:50.779,4.267044, 4_Baseline, 436958.6629753, 3037, 923.476501464844, 1375.09155273438, 687.5, 87.2727279663086, -2.66187906265259, -4.28485918045044, 8.81627750396729, 2.80916023254395, 1.72519087791443, 0.595419824123383,Starts
0:25/12/2019 17:14:50.779,4.267087, 4_Baseline, 436958.6631567, 3037, 923.476501464844, 1379.48718261719, 687.5, 87.2727279663086, -2.65709161758423, -4.26092147827148, 8.81867122650146, 2.80916023254395, 1.72519087791443, 0.946564912796021,Starts
0:25/12/2019 17:14:50.779,4.267167, 4_Baseline, 436958.6633835, 3036, 923.865356445313, 1378.02197265625, 687.5, 87.2727279663086, -2.70736074447632, -4.24895286560059, 8.81149005889893, 2.8702290058136, 1.37404584884644, 0.839694678783417,Starts
0:25/12/2019 17:14:50.779,4.267207, 4_Baseline, 436958.6656509, 3035, 924.254577636719, 1374.35900878906, 687.5, 87.2727279663086, -2.72890496253967, -4.25134658813477, 8.81388378143311, 3.28244280815125, 1.37404584884644, 1.25190842151642,Starts
0:25/12/2019 17:14:50.790,4.278006, 4_Baseline, 436958.6837594, 3037, 923.476501464844, 1367.03295898438, 687.5, 87.2727279663086, -2.70257329940796, -4.24655914306641, 8.83064079284668, 3.41984724998474, 1.37404584884644, 1.19083964824677,Starts
0:25/12/2019 17:14:50.801,4.289019, 4_Baseline, 436958.6855113, 3036, 923.865356445313, 1357.50915527344, 687.5, 87.2727279663086, -2.73608613014221, -4.22022724151611, 8.85457801818848, 3.58778619766235, 0.793893158435822, 1.80152666568756,Starts
0:25/12/2019 17:14:50.823,4.311277, 4_Baseline, 436958.7134344, 3035, 924.254577636719, 1347.25280761719, 687.5, 87.2727279663086, -2.75763010978699, -4.21304607391357, 8.83542823791504, 3.51145029067993, 0.778625965118408, 1.7404580116272,Starts
0:25/12/2019 17:14:50.823,4.311309, 4_Baseline, 436958.7135456, 3035, 924.254577636719, 1337.72888183594, 687.5, 87.2727279663086, -2.76481151580811, -4.20347118377686, 8.8402156829834, 3.25190830230713, 0.167938932776451, 1.41984736919403,Starts
0:25/12/2019 17:14:50.823,4.311335, 4_Baseline, 436958.7155043, 3036, 923.865356445313, 1328.93774414063, 687.5, 87.2727279663086, -2.74326753616333, -4.1915020942688, 8.83542823791504, 3.55725193023682, -0.274809151887894, 1.1297709941864,Starts
0:25/12/2019 17:14:50.823,4.311358, 4_Baseline, 436958.7173908, 3034, 924.644104003906, 1321.61169433594, 687.5, 87.2727279663086, -2.69539189338684, -4.18432092666626, 8.80670261383057, 3.49618315696716, -0.656488537788391, 0.519083976745605,Starts
0:25/12/2019 17:14:50.846,4.333527, 4_Baseline, 436958.7345085, 3035, 924.254577636719, 1316.48352050781, 687.5, 87.2727279663086, -2.63554763793945, -4.16995811462402, 8.81149005889893, 3.05343508720398, -0.870229005813599, 0.47328245639801,Starts
0:25/12/2019 17:14:50.846,4.333564, 4_Baseline, 436958.7363465, 3035, 924.254577636719, 1312.82055664063, 687.5, 87.2727279663086, -2.60442852973938, -4.1723518371582, 8.80191516876221, 2.51908397674561, -0.824427485466003, 0.152671754360199,Starts
0:25/12/2019 17:14:50.846,4.333589, 4_Baseline, 436958.7373521, 3036, 923.865356445313, 1310.62268066406, 687.5, 87.2727279663086, -2.60921597480774, -4.15559530258179, 8.80191516876221, 2.24427485466003, -0.641221344470978, 0.244274809956551,Starts
0:25/12/2019 17:14:50.891,4.378611, 4_Baseline, 436958.7835506, 3034, 924.644104003906, 1309.89013671875, 687.5, 87.2727279663086, -2.55415916442871, -4.14602041244507, 8.79712772369385, 1.61832058429718, -0.870229005813599, 0.0305343512445688,Starts
0:25/12/2019 17:14:50.891,4.378644, 4_Baseline, 436958.7836807, 3035, 924.254577636719, 1312.82055664063, 687.5, 87.2727279663086, -2.56134057044983, -4.15798902511597, 8.79952144622803, 1.29770994186401, -0.396946579217911, 0.0610687024891377,Starts
0:25/12/2019 17:14:50.891,4.378677, 4_Baseline, 436958.7854509, 3035, 924.254577636719, 1311.35534667969, 687.5, 87.2727279663086, -2.57330942153931, -4.17474555969238, 8.83064079284668, 1.09923660755157, -0.259541988372803, -0.106870226562023,Starts
0:25/12/2019 17:14:50.891,4.3787, 4_Baseline, 436958.7857361, 3035, 924.254577636719, 1312.82055664063, 687.5, 87.2727279663086, -2.61160969734192, -4.20586490631104, 8.81149005889893, 0.763358771800995, 0.137404575943947, -0.0458015277981758,Starts
0:25/12/2019 17:14:50.891,4.378723, 4_Baseline, 436958.7859829, 3035, 924.254577636719, 1314.28576660156, 687.5, 87.2727279663086, -2.61639738082886, -4.21065235137939, 8.83782196044922, 0.854961812496185, 0.351145029067993, 0.0763358771800995,Starts
0:25/12/2019 17:14:50.926,4.414087, 4_Baseline, 436958.8094966, 3034, 924.644104003906, 1315.01831054688, 687.5, 87.2727279663086, -2.66906046867371, -4.22022724151611, 8.84979057312012, 1.03816795349121, 0.305343508720398, 0.122137404978275,Starts
0:25/12/2019 17:14:50.926,4.414157, 4_Baseline, 436958.8097176, 3034, 924.644104003906, 1318.68127441406, 687.5, 87.2727279663086, -2.67145419120789, -4.20107698440552, 8.86654663085938, 1.11450386047363, 0.290076345205307, 0.244274809956551,Starts
0:25/12/2019 17:14:50.926,4.414182, 4_Baseline, 436958.8125274, 3035, 924.254577636719, 1320.87915039063, 687.5, 87.2727279663086, -2.65230393409729, -4.21065235137939, 8.8641529083252, 0.961832046508789, 0.519083976745605, 0.656488537788391,Starts
0:25/12/2019 17:14:50.926,4.414206, 4_Baseline, 436958.8144081, 3035, 924.254577636719, 1320.87915039063, 687.5, 87.2727279663086, -2.67145419120789, -4.20825862884521, 8.87133407592773, 1.25190842151642, 0.152671754360199, 0.625954210758209,Starts
0:25/12/2019 17:14:50.926,4.41423, 4_Baseline, 436958.8145615, 3033, 925.033935546875, 1318.68127441406, 687.5, 87.2727279663086, -2.72172355651855, -4.20107698440552, 8.90724086761475, 1.31297707557678, 0.47328245639801, 0.534351170063019,Starts
0:25/12/2019 17:14:50.939,4.427112, 4_Baseline, 436958.8335782, 3034, 924.644104003906, 1320.146484375, 687.5, 87.2727279663086, -2.72651100158691, -4.17953300476074, 8.86654663085938, 1.35877859592438, 0.351145029067993, 1.00763356685638,Starts
0:25/12/2019 17:14:50.958,4.445581, 4_Baseline, 436958.8353944, 3035, 924.254577636719, 1320.87915039063, 687.5, 87.2727279663086, -2.72890496253967, -4.18192720413208, 8.84500312805176, 1.14503812789917, -0.290076345205307, 0.732824444770813,Starts
0:25/12/2019 17:14:50.958,4.445614, 4_Baseline, 436958.8364129, 3033, 925.033935546875, 1320.87915039063, 687.5, 87.2727279663086, -2.78874921798706, -4.16517066955566, 8.80909633636475, 0.534351170063019, -0.778625965118408, 1.02290081977844,Starts
0:25/12/2019 17:14:50.969,4.457337, 4_Baseline, 436958.859388, 3034, 924.644104003906, 1321.61169433594, 687.5, 87.2727279663086, -2.81268692016602, -4.15798902511597, 8.78515815734863, 0.595419824123383, -1.57251906394959, 1.14503812789917,Starts
0:25/12/2019 17:14:50.970,4.457396, 4_Baseline, 436958.8595126, 3035, 924.254577636719, 1328.205078125, 687.5, 87.2727279663086, -2.78635549545288, -4.15559530258179, 8.78755283355713, 0.488549619913101, -2.35114502906799, 0.7175572514534,Starts
0:25/12/2019 17:14:50.970,4.457433, 4_Baseline, 436958.8596392, 3034, 924.644104003906, 1335.53112792969, 687.5, 87.2727279663086, -2.70017957687378, -4.13883924484253, 8.7540397644043, -0.0458015277981758, -2.56488537788391, 0.641221344470978,Starts
0:25/12/2019 17:14:50.998,4.486215, 4_Baseline, 436958.8833463, 3033, 925.033935546875, 1345.78759765625, 687.5, 87.2727279663086, -2.71214842796326, -4.14602041244507, 8.79234027862549, -0.656488537788391, -2.96183204650879, 0.671755731105804,Starts
0:25/12/2019 17:14:50.998,4.486247, 4_Baseline, 436958.88524, 3034, 924.644104003906, 1358.24169921875, 687.5, 87.2727279663086, -2.70496702194214, -4.14841413497925, 8.77318954467773, -1.26717555522919, -3.75572514533997, 0.885496199131012,Starts
0:25/12/2019 17:14:51.021,4.508484, 4_Baseline, 436958.9092086, 3033, 925.033935546875, 1369.23071289063, 687.5, 87.2727279663086, -2.65948534011841, -4.14362668991089, 8.7660083770752, -1.52671754360199, -3.77099227905273, 0.458015263080597,Starts
0:25/12/2019 17:14:51.021,4.50852, 4_Baseline, 436958.909387, 3034, 924.644104003906, 1380.95239257813, 687.5, 87.2727279663086, -2.64991021156311, -4.15798902511597, 8.79712772369385, -1.96946561336517, -3.80152678489685, 0.488549619913101,Starts
0:25/12/2019 17:14:51.021,4.508546, 4_Baseline, 436958.9112842, 3033, 925.033935546875, 1394.87182617188, 687.5, 87.2727279663086, -2.65709161758423, -4.16756439208984, 8.79234027862549, -2.27480912208557, -4.18320608139038, 0.580152690410614,Starts
0:25/12/2019 17:14:51.021,4.50857, 4_Baseline, 436958.9114897, 3034, 924.644104003906, 1410.98901367188, 687.5, 87.2727279663086, -2.678635597229, -4.19628953933716, 8.81388378143311, -2.71755719184875, -4.2595419883728, 0.381679385900497,Starts
0:25/12/2019 17:14:51.021,4.508657, 4_Baseline, 436958.9151534, 3033, 925.033935546875, 1428.57141113281, 687.5, 87.2727279663086, -2.64033508300781, -4.18910837173462, 8.8402156829834, -2.53435111045837, -4.59541988372803, 0.0152671756222844,Starts
0:25/12/2019 17:14:51.043,4.53102, 4_Baseline, 436958.9352891, 3035, 924.254577636719, 1446.88647460938, 687.5, 87.2727279663086, -2.59485340118408, -4.21065235137939, 8.8521842956543, -2.39694666862488, -4.19847345352173, 0.152671754360199,Starts
0:25/12/2019 17:14:51.043,4.531057, 4_Baseline, 436958.9371105, 3034, 924.644104003906, 1466.66662597656, 687.5, 87.2727279663086, -2.57570314407349, -4.26570892333984, 8.89527225494385, -1.93893134593964, -4.06106853485107, 0.183206111192703,Starts
0:25/12/2019 17:14:51.061,4.54838, 4_Baseline, 436958.9411251, 3033, 925.033935546875, 1492.30773925781, 687.5, 87.2727279663086, -2.59485340118408, -4.27528429031372, 8.91202831268311, -1.22137403488159, -3.81679391860962, 0.549618303775787,Starts
0:25/12/2019 17:14:51.077,4.564301, 4_Baseline, 436958.9650973, 3032, 925.424133300781, 1520.146484375, 687.5, 87.2727279663086, -2.57091569900513, -4.30400943756104, 8.91681671142578, -1.29770994186401, -3.1297709941864, 0.641221344470978,Starts
0:25/12/2019 17:14:51.077,4.564365, 4_Baseline, 436958.9710288, 3033, 925.033935546875, 1547.25280761719, 687.5, 87.2727279663086, -2.61160969734192, -4.30161571502686, 8.92878532409668, -0.106870226562023, -2.79389309883118, 0.778625965118408,Starts
0:25/12/2019 17:14:51.077,4.564409, 4_Baseline, 436958.9712197, 3033, 925.033935546875, 1575.82421875, 687.5, 87.2727279663086, -2.58049082756042, -4.28964710235596, 8.94075393676758, 0.534351170063019, -2.41221380233765, 0.519083976745605,Starts
0:25/12/2019 17:14:51.087,4.575053, 4_Baseline, 436958.981044, 3032, 925.424133300781, 1602.19775390625, 687.5, 87.2727279663086, -2.55415916442871, -4.28007173538208, 8.93117904663086, 1.00763356685638, -1.90839695930481, 0.839694678783417,Starts
0:25/12/2019 17:14:51.099,4.586687, 4_Baseline, 436958.9929383, 3033, 925.033935546875, 1624.17578125, 687.5, 87.2727279663086, -2.56373429298401, -4.2776780128479, 8.94314765930176, 1.11450386047363, -1.11450386047363, 0.793893158435822,Starts
0:25/12/2019 17:14:51.122,4.609025, 4_Baseline, 436959.0059779, 3034, 924.644104003906, 1638.82788085938, 687.5, 87.2727279663086, -2.54219031333923, -4.26810312271118, 8.89766597747803, 1.63358783721924, -0.854961812496185, 0.900763332843781,Starts
0:25/12/2019 17:14:51.122,4.609059, 4_Baseline, 436959.0061623, 3033, 925.033935546875, 1646.15380859375, 687.5, 87.2727279663086, -2.55655288696289, -4.25134658813477, 8.88809108734131, 1.90839695930481, -0.381679385900497, 0.870229005813599,Starts
0:25/12/2019 17:14:51.122,4.609085, 4_Baseline, 436959.0079439, 3033, 925.033935546875, 1644.68859863281, 687.5, 87.2727279663086, -2.55415916442871, -4.2585277557373, 8.87133407592773, 2.13740468025208, 0.0305343512445688, 1.19083964824677,Starts
0:25/12/2019 17:14:51.151,4.638409, 4_Baseline, 436959.0338567, 3033, 925.033935546875, 1635.8974609375, 687.5, 87.2727279663086, -2.58527827262878, -4.23937749862671, 8.85936546325684, 2.48854970932007, 0.335877865552902, 1.26717555522919,Starts
0:25/12/2019 17:14:51.151,4.638439, 4_Baseline, 436959.0340431, 3034, 924.644104003906, 1621.24536132813, 687.5, 87.2727279663086, -2.58049082756042, -4.24895286560059, 8.8521842956543, 2.53435111045837, 0.167938932776451, 1.52671754360199,Starts
0:25/12/2019 17:14:51.151,4.638463, 4_Baseline, 436959.0359286, 3033, 925.033935546875, 1602.93041992188, 687.5, 87.2727279663086, -2.64512276649475, -4.21304607391357, 8.82106494903564, 2.53435111045837, 0.625954210758209, 1.34351146221161,Starts
0:25/12/2019 17:14:51.151,4.638484, 4_Baseline, 436959.0362464, 3032, 925.424133300781, 1581.68493652344, 687.5, 87.2727279663086, -2.65469789505005, -4.17953300476074, 8.81627750396729, 2.44274806976318, 0.229007631540298, 1.06870234012604,Starts
0:25/12/2019 17:14:51.178,4.665218, 4_Baseline, 436959.0608174, 3032, 925.424133300781, 1559.70690917969, 687.5, 87.2727279663086, -2.65948534011841, -4.17953300476074, 8.80430889129639, 2.06106877326965, 0.290076345205307, 1.51145040988922,Starts
0:25/12/2019 17:14:51.178,4.665253, 4_Baseline, 436959.0610452, 3034, 924.644104003906, 1532.60070800781, 687.5, 87.2727279663086, -2.66906046867371, -4.16995811462402, 8.80670261383057, 1.67938935756683, -0.0916030555963516, 1.4351145029068,Starts
0:25/12/2019 17:14:51.178,4.665279, 4_Baseline, 436959.0627937, 3032, 925.424133300781, 1506.95971679688, 687.5, 87.2727279663086, -2.67624187469482, -4.19628953933716, 8.80909633636475, 1.89312982559204, -0.274809151887894, 1.6946564912796,Starts
0:25/12/2019 17:14:51.178,4.665302, 4_Baseline, 436959.0630436, 3032, 925.424133300781, 1480.58605957031, 687.5, 87.2727279663086, -2.678635597229, -4.21783351898193, 8.78515815734863, 2.06106877326965, -0.595419824123383, 1.90839695930481,Starts
0:25/12/2019 17:14:51.199,4.687352, 4_Baseline, 436959.0847767, 3032, 925.424133300781, 1458.60803222656, 687.5, 87.2727279663086, -2.678635597229, -4.20347118377686, 8.77318954467773, 2.19847321510315, -0.977099239826202, 2.09160304069519,Starts
0:25/12/2019 17:14:51.199,4.687391, 4_Baseline, 436959.0849117, 3033, 925.033935546875, 1441.02563476563, 687.5, 87.2727279663086, -2.67624187469482, -4.22501516342163, 8.80430889129639, 2.38167929649353, -1.32824432849884, 1.98473286628723,Starts
0:25/12/2019 17:14:51.199,4.687415, 4_Baseline, 436959.0857064, 3032, 925.424133300781, 1424.90844726563, 687.5, 87.2727279663086, -2.64272880554199, -4.19389581680298, 8.81388378143311, 2.33587789535522, -1.19083964824677, 2.10687017440796,Starts
0:25/12/2019 17:14:51.218,4.706183, 4_Baseline, 436959.1086891, 3032, 925.424133300781, 1411.72155761719, 687.5, 87.2727279663086, -2.62836623191834, -4.20107698440552, 8.85697174072266, 2.53435111045837, -1.11450386047363, 2.24427485466003,Starts
0:25/12/2019 17:14:51.218,4.706221, 4_Baseline, 436959.1106613, 3035, 924.254577636719, 1400.73254394531, 687.5, 87.2727279663086, -2.63075995445251, -4.22022724151611, 8.88569736480713, 3.22137403488159, -1.1297709941864, 2.93129777908325,Starts
0:25/12/2019 17:14:51.222,4.709932, 4_Baseline, 436959.1157222, 3033, 925.033935546875, 1390.47619628906, 687.5, 87.2727279663086, -2.66187906265259, -4.22022724151611, 8.89048480987549, 3.60305333137512, -1.35877859592438, 2.91603064537048,Starts
0:25/12/2019 17:14:51.244,4.731683, 4_Baseline, 436959.1345984, 3032, 925.424133300781, 1379.48718261719, 687.5, 87.2727279663086, -2.70017957687378, -4.23698377609253, 8.87851619720459, 3.98473286628723, -1.20610690116882, 3.64885497093201,Starts
0:25/12/2019 17:14:51.244,4.731729, 4_Baseline, 436959.1347548, 3033, 925.033935546875, 1370.69592285156, 687.5, 87.2727279663086, -2.70736074447632, -4.22022724151611, 8.86894035339355, 4.22900772094727, -1.31297707557678, 3.96946573257446,Starts
0:25/12/2019 17:14:51.266,4.754027, 4_Baseline, 436959.158507, 3032, 925.424133300781, 1362.63732910156, 687.5, 87.2727279663086, -2.69060444831848, -4.24416494369507, 8.88809108734131, 5.23664140701294, -0.977099239826202, 4.15267181396484,Starts
0:25/12/2019 17:14:51.266,4.754065, 4_Baseline, 436959.158671, 3033, 925.033935546875, 1358.97436523438, 687.5, 87.2727279663086, -2.64512276649475, -4.24416494369507, 8.88090991973877, 5.40458011627197, -1.48091602325439, 4.07633590698242,Starts
0:25/12/2019 17:14:51.266,4.75409, 4_Baseline, 436959.1596561, 3032, 925.424133300781, 1354.57873535156, 687.5, 87.2727279663086, -2.64272880554199, -4.20107698440552, 8.89287853240967, 6.70229005813599, -0.778625965118408, 4.41221380233765,Starts
0:25/12/2019 17:14:51.278,4.765714, 4_Baseline, 436959.1615855, 3031, 925.814636230469, 1350.91577148438, 687.5, 87.2727279663086, -2.62597250938416, -4.17474555969238, 8.91202831268311, 6.88549613952637, -0.702290058135986, 4.59541988372803,Starts
0:25/12/2019 17:14:51.300,4.787899, 4_Baseline, 436959.1835314, 3032, 925.424133300781, 1348.71789550781, 687.5, 87.2727279663086, -2.61400365829468, -4.18910837173462, 8.91921043395996, 6.93129777908325, -0.320610672235489, 4.35114526748657,Starts
0:25/12/2019 17:14:51.300,4.787967, 4_Baseline, 436959.1855641, 3032, 925.424133300781, 1349.45056152344, 687.5, 87.2727279663086, -2.60921597480774, -4.15320158004761, 8.91202831268311, 7.6030535697937, -0.396946579217911, 4.90076351165771,Starts
0:25/12/2019 17:14:51.300,4.787992, 4_Baseline, 436959.1857817, 3032, 925.424133300781, 1352.38098144531, 687.5, 87.2727279663086, -2.63794136047363, -4.15320158004761, 8.88569736480713, 7.58778619766235, -0.366412222385406, 5.29770994186401,Starts
0:25/12/2019 17:14:51.300,4.788015, 4_Baseline, 436959.1874265, 3031, 925.814636230469, 1354.57873535156, 687.5, 87.2727279663086, -2.64512276649475, -4.18910837173462, 8.86175918579102, 8.51908397674561, -0.290076345205307, 5.61832046508789,Starts
0:25/12/2019 17:14:51.333,4.821189, 4_Baseline, 436959.224518, 3031, 925.814636230469, 1355.31140136719, 687.5, 87.2727279663086, -2.67145419120789, -4.18671464920044, 8.88090991973877, 9.08396911621094, -0.351145029067993, 5.55725193023682,Starts
0:25/12/2019 17:14:51.375,4.862408, 4_Baseline, 436959.258295, 3031, 925.814636230469, 1357.50915527344, 687.5, 87.2727279663086, -2.66187906265259, -4.16277694702148, 8.90245342254639, 9.60305309295654, 0.0305343512445688, 5.00763368606567,Starts
0:25/12/2019 17:14:51.375,4.862442, 4_Baseline, 436959.2584028, 3030, 926.205505371094, 1357.50915527344, 687.5, 87.2727279663086, -2.63554763793945, -4.07181310653687, 8.90484714508057, 9.54198455810547, -0.198473289608955, 4.61068725585938,Starts
0:25/12/2019 17:14:51.375,4.862466, 4_Baseline, 436959.2602254, 3030, 926.205505371094, 1356.77661132813, 687.5, 87.2727279663086, -2.61160969734192, -4.07181310653687, 8.93357276916504, 9.52671718597412, 0.351145029067993, 5.40458011627197,Starts
0:25/12/2019 17:14:51.375,4.862489, 4_Baseline, 436959.2622762, 3030, 926.205505371094, 1357.50915527344, 687.5, 87.2727279663086, -2.64033508300781, -4.06463193893433, 8.95272254943848, 9.19083976745605, 1.05343508720398, 6.01526737213135,Starts
0:25/12/2019 17:14:51.375,4.862519, 4_Baseline, 436959.2625236, 3031, 925.814636230469, 1363.36999511719, 687.5, 87.2727279663086, -2.63075995445251, -4.08856964111328, 8.94314765930176, 9.37404537200928, 1.14503812789917, 6.3969464302063,Starts
0:25/12/2019 17:14:51.375,4.862542, 4_Baseline, 436959.2642628, 3030, 926.205505371094, 1364.1025390625, 687.5, 87.2727279663086, -2.71932983398438, -4.06941938400269, 8.94554138183594, 9.78625965118408, 1.28244268894196, 5.63358783721924,Starts
0:25/12/2019 17:14:51.375,4.862564, 4_Baseline, 436959.2644886, 3029, 926.5966796875, 1368.49816894531, 687.5, 87.2727279663086, -2.74087381362915, -4.0191502571106, 8.90245342254639, 9.93893146514893, 0.870229005813599, 5.69465637207031,Starts
0:25/12/2019 17:14:51.400,4.888253, 4_Baseline, 436959.2921665, 3029, 926.5966796875, 1374.35900878906, 671.875, 89.3023223876953, -2.78635549545288, -3.99281859397888, 8.9263916015625, 9.69465637207031, 0.290076345205307, 6.16793870925903,Starts
0:25/12/2019 17:14:51.401,4.888321, 4_Baseline, 436959.2922788, 3030, 926.205505371094, 1377.28942871094, 671.875, 89.3023223876953, -2.82944345474243, -3.99760627746582, 8.94793510437012, 9.52671718597412, 0.0152671756222844, 6.32061052322388,Starts
0:25/12/2019 17:14:51.401,4.888365, 4_Baseline, 436959.2924247, 3030, 926.205505371094, 1386.81323242188, 671.875, 89.3023223876953, -2.84619998931885, -3.9808497428894, 8.90484714508057, 9.08396911621094, -0.763358771800995, 6.21374034881592,Starts
0:25/12/2019 17:14:51.401,4.888408, 4_Baseline, 436959.2925917, 3029, 926.5966796875, 1392.67395019531, 671.875, 89.3023223876953, -2.81029319763184, -3.93536806106567, 8.92399787902832, 9.25190830230713, -1.32824432849884, 4.94656467437744,Starts
0:25/12/2019 17:14:51.401,4.888449, 4_Baseline, 436959.2927065, 3028, 926.988159179688, 1394.87182617188, 671.875, 89.3023223876953, -2.6977858543396, -3.89706754684448, 8.96229839324951, 8.85496139526367, -1.45038163661957, 4.2595419883728,Starts
0:25/12/2019 17:14:51.423,4.91042, 4_Baseline, 436959.3102028, 3029, 926.5966796875, 1394.87182617188, 671.875, 89.3023223876953, -2.70496702194214, -3.83722329139709, 8.96229839324951, 7.37404584884644, -1.46564888954163, 4.44274806976318,Starts
0:25/12/2019 17:14:51.445,4.932975, 4_Baseline, 436959.3351018, 3028, 926.988159179688, 1396.33703613281, 671.875, 89.3023223876953, -2.6882107257843, -3.86834239959717, 8.90963459014893, 6.22900772094727, -1.7404580116272, 4.64122152328491,Starts
0:25/12/2019 17:14:51.445,4.933008, 4_Baseline, 436959.3353158, 3029, 926.5966796875, 1394.13916015625, 671.875, 89.3023223876953, -2.66187906265259, -3.86116099357605, 8.90963459014893, 5.51145029067993, -1.63358783721924, 3.49618315696716,Starts
0:25/12/2019 17:14:51.445,4.933032, 4_Baseline, 436959.3355075, 3027, 927.380004882813, 1396.33703613281, 671.875, 89.3023223876953, -2.61639738082886, -3.85397958755493, 8.90245342254639, 4.96183204650879, -2.10687017440796, 3.52671766281128,Starts
0:25/12/2019 17:14:51.445,4.933064, 4_Baseline, 436959.337105, 3028, 926.988159179688, 1394.87182617188, 671.875, 89.3023223876953, -2.65709161758423, -3.8276481628418, 8.91202831268311, 3.96946573257446, -2.03053426742554, 3.09923672676086,Starts
0:25/12/2019 17:14:51.445,4.933093, 4_Baseline, 436959.3373451, 3028, 926.988159179688, 1394.87182617188, 671.875, 89.3023223876953, -2.61160969734192, -3.82525444030762, 8.92878532409668, 2.73282432556152, -1.54198467731476, 2.54961824417114,Starts
0:25/12/2019 17:14:51.468,4.955785, 4_Baseline, 436959.3591572, 3027, 927.380004882813, 1394.87182617188, 671.875, 89.3023223876953, -2.59006571769714, -3.82046675682068, 8.91442203521729, 1.83206105232239, -1.32824432849884, 1.81679391860962,Starts
0:25/12/2019 17:14:51.468,4.955817, 4_Baseline, 436959.3609835, 3028, 926.988159179688, 1393.40661621094, 671.875, 89.3023223876953, -2.60682225227356, -3.81089162826538, 8.90005970001221, 0.778625965118408, -1.20610690116882, 1.32824432849884,Starts
0:25/12/2019 17:14:51.468,4.955842, 4_Baseline, 436959.3611493, 3028, 926.988159179688, 1391.20874023438, 671.875, 89.3023223876953, -2.60682225227356, -3.7989227771759, 8.95272254943848, -0.442748099565506, -1.09923660755157, 0.656488537788391,Starts
0:25/12/2019 17:14:51.491,4.978741, 4_Baseline, 436959.3839538, 3027, 927.380004882813, 1386.81323242188, 671.875, 89.3023223876953, -2.62597250938416, -3.7989227771759, 8.96469211578369, -1.67938935756683, -1.16030538082123, -0.0916030555963516,Starts
0:25/12/2019 17:14:51.503,4.990932, 4_Baseline, 436959.3879594, 3028, 926.988159179688, 1382.41760253906, 671.875, 89.3023223876953, -2.64033508300781, -3.81328535079956, 8.96469211578369, -2.91603064537048, -0.427480906248093, -0.7175572514534,Starts
0:25/12/2019 17:14:51.535,5.022423, 4_Baseline, 436959.4109644, 3028, 926.988159179688, 1377.28942871094, 671.875, 89.3023223876953, -2.64033508300781, -3.81567931175232, 8.96229839324951, -3.96946573257446, -0.534351170063019, -0.900763332843781,Starts
0:25/12/2019 17:14:51.535,5.022455, 4_Baseline, 436959.411253, 3028, 926.988159179688, 1374.35900878906, 671.875, 89.3023223876953, -2.68102931976318, -3.86834239959717, 8.94554138183594, -4.32061052322388, -0.763358771800995, -1.57251906394959,Starts
0:25/12/2019 17:14:51.535,5.022486, 4_Baseline, 436959.4114935, 3027, 927.380004882813, 1373.62634277344, 671.875, 89.3023223876953, -2.73369240760803, -3.91861152648926, 8.9503288269043, -5.26717567443848, -0.931297719478607, -1.6946564912796,Starts
0:25/12/2019 17:14:51.535,5.022509, 4_Baseline, 436959.4128656, 3028, 926.988159179688, 1370.69592285156, 671.875, 89.3023223876953, -2.76481151580811, -3.92818665504456, 8.95511627197266, -6.15267181396484, -1.19083964824677, -2.16793894767761,Starts
0:25/12/2019 17:14:51.535,5.022532, 4_Baseline, 436959.4148138, 3027, 927.380004882813, 1366.30041503906, 671.875, 89.3023223876953, -2.76959896087646, -3.91621780395508, 8.94793510437012, -6.32061052322388, -1.77099239826202, -2.39694666862488,Starts
0:25/12/2019 17:14:51.550,5.037094, 4_Baseline, 436959.4398895, 3028, 926.988159179688, 1361.17211914063, 671.875, 89.3023223876953, -2.76481151580811, -3.9233992099762, 8.95751094818115, -6.68702268600464, -2.04580163955688, -2.68702292442322,Starts
0:25/12/2019 17:14:51.550,5.037189, 4_Baseline, 436959.4417589, 3027, 927.380004882813, 1354.57873535156, 671.875, 89.3023223876953, -2.73369240760803, -3.92579293251038, 8.95272254943848, -7.00763368606567, -2.29007625579834, -2.97709918022156,Starts
0:25/12/2019 17:14:51.550,5.037236, 4_Baseline, 436959.4419386, 3026, 927.772216796875, 1350.91577148438, 671.875, 89.3023223876953, -2.69060444831848, -3.93536806106567, 8.95751094818115, -7.49618339538574, -1.98473286628723, -3.20610690116882,Starts
0:25/12/2019 17:14:51.572,5.060605, 4_Baseline, 436959.4608118, 3026, 927.772216796875, 1347.25280761719, 671.875, 89.3023223876953, -2.66187906265259, -3.95212435722351, 8.93596649169922, -8, -1.98473286628723, -3.26717567443848,Starts
0:25/12/2019 17:14:51.572,5.060641, 4_Baseline, 436959.4628097, 3027, 927.380004882813, 1340.65930175781, 671.875, 89.3023223876953, -2.63554763793945, -3.95691204071045, 8.94075393676758, -8.30534362792969, -1.75572514533997, -3.57251906394959,Starts
0:25/12/2019 17:14:51.572,5.060674, 4_Baseline, 436959.4647625, 3026, 927.772216796875, 1330.40295410156, 671.875, 89.3023223876953, -2.63554763793945, -3.96169948577881, 8.94554138183594, -8.56488513946533, -1.29770994186401, -4.04580163955688,Starts
0:25/12/2019 17:14:51.593,5.081696, 4_Baseline, 436959.483728, 3026, 927.772216796875, 1326.00732421875, 671.875, 89.3023223876953, -2.61160969734192, -3.96409344673157, 8.92878532409668, -8.62595462799072, -1.41984736919403, -4.50381660461426,Starts
0:25/12/2019 17:14:51.594,5.081758, 4_Baseline, 436959.4856998, 3028, 926.988159179688, 1323.8095703125, 671.875, 89.3023223876953, -2.5924596786499, -3.97845602035522, 8.90005970001221, -8.80916023254395, -0.977099239826202, -4.87022924423218,Starts
0:25/12/2019 17:14:51.597,5.085715, 4_Baseline, 436959.4906886, 3027, 927.380004882813, 1324.54211425781, 671.875, 89.3023223876953, -2.60442852973938, -4.01436281204224, 8.90484714508057, -9.14503860473633, -1.06870234012604, -5.32824420928955,Starts
0:25/12/2019 17:14:51.625,5.113512, 4_Baseline, 436959.5095741, 3025, 928.164672851563, 1326.00732421875, 671.875, 89.3023223876953, -2.61879110336304, -4.03590679168701, 8.91442203521729, -9.48091602325439, -0.503816783428192, -5.43511438369751,Starts
0:25/12/2019 17:14:51.625,5.113546, 4_Baseline, 436959.5097814, 3026, 927.772216796875, 1326.00732421875, 671.875, 89.3023223876953, -2.63315391540527, -4.04069423675537, 8.91681671142578, -9.83206081390381, -0.763358771800995, -5.83206129074097,Starts
0:25/12/2019 17:14:51.625,5.113572, 4_Baseline, 436959.5156171, 3027, 927.380004882813, 1326.00732421875, 671.875, 89.3023223876953, -2.63075995445251, -4.07420682907104, 8.91681671142578, -10.4427480697632, -0.503816783428192, -6.21374034881592,Starts
0:25/12/2019 17:14:51.625,5.113598, 4_Baseline, 436959.5158065, 3026, 927.772216796875, 1326.73986816406, 671.875, 89.3023223876953, -2.64751648902893, -4.07660102844238, 8.91681671142578, -10.9465646743774, -0.732824444770813, -6.50381660461426,Starts
0:25/12/2019 17:14:51.648,5.136065, 4_Baseline, 436959.5336907, 3025, 928.164672851563, 1328.205078125, 671.875, 89.3023223876953, -2.62836623191834, -4.09575128555298, 8.90724086761475, -11.5572519302368, -0.748091578483582, -6.83969449996948,Starts
0:25/12/2019 17:14:51.648,5.136102, 4_Baseline, 436959.5375367, 3027, 927.380004882813, 1330.40295410156, 671.875, 89.3023223876953, -2.61160969734192, -4.11729526519775, 8.85457801818848, -12.3053436279297, -0.839694678783417, -6.87022924423218,Starts
0:25/12/2019 17:14:51.671,5.15869, 4_Baseline, 436959.5584778, 3025, 928.164672851563, 1335.53112792969, 671.875, 89.3023223876953, -2.6020348072052, -4.15559530258179, 8.80670261383057, -12.3511447906494, -0.580152690410614, -6.53435134887695,Starts
0:25/12/2019 17:14:51.671,5.158725, 4_Baseline, 436959.560507, 3026, 927.772216796875, 1345.05493164063, 671.875, 89.3023223876953, -2.67384791374207, -4.23219633102417, 8.8402156829834, -11.7709922790527, -0.839694678783417, -5.66412210464478,Starts
0:25/12/2019 17:14:51.671,5.158785, 4_Baseline, 436959.5624509, 3026, 927.772216796875, 1354.57873535156, 671.875, 89.3023223876953, -2.67624187469482, -4.23698377609253, 8.78994655609131, -11.1755723953247, -0.900763332843781, -5.20610666275024,Starts
0:25/12/2019 17:14:51.671,5.158809, 4_Baseline, 436959.5625794, 3025, 928.164672851563, 1362.63732910156, 671.875, 89.3023223876953, -2.63794136047363, -4.22980260848999, 8.73249530792236, -10.0763359069824, -0.916030526161194, -5.37404584884644,Starts
0:25/12/2019 17:14:51.704,5.192348, 4_Baseline, 436959.5984432, 3026, 927.772216796875, 1374.35900878906, 671.875, 89.3023223876953, -2.63075995445251, -4.25134658813477, 8.78037071228027, -9.3435115814209, -0.778625965118408, -4.85496187210083,Starts
0:25/12/2019 17:14:51.738,5.22593, 4_Baseline, 436959.621315, 3025, 928.164672851563, 1390.47619628906, 671.875, 89.3023223876953, -2.65948534011841, -4.30640316009521, 8.79234027862549, -8.70229053497314, -0.916030526161194, -3.77099227905273,Starts
0:25/12/2019 17:14:51.738,5.225974, 4_Baseline, 436959.6232891, 3024, 928.557556152344, 1409.52380371094, 671.875, 89.3023223876953, -2.73369240760803, -4.37582302093506, 8.83782196044922, -7.61832046508789, -0.824427485466003, -3.08396935462952,Starts
0:25/12/2019 17:14:51.738,5.225999, 4_Baseline, 436959.6254529, 3025, 928.164672851563, 1430.76928710938, 671.875, 89.3023223876953, -2.75044894218445, -4.43566703796387, 8.86894035339355, -6.12213754653931, -1.00763356685638, -2.13740468025208,Starts
0:25/12/2019 17:14:51.738,5.226023, 4_Baseline, 436959.6283899, 3025, 928.164672851563, 1457.14282226563, 671.875, 89.3023223876953, -2.81747460365295, -4.41891098022461, 8.91202831268311, -4.82442760467529, -1.1297709941864, -1.75572514533997,Starts
0:25/12/2019 17:14:51.738,5.226046, 4_Baseline, 436959.6302807, 3026, 927.772216796875, 1483.51647949219, 671.875, 89.3023223876953, -2.82226204872131, -4.40933561325073, 8.9503288269043, -3.52671766281128, -1.28244268894196, -0.503816783428192,Starts
0:25/12/2019 17:14:51.738,5.226072, 4_Baseline, 436959.6322723, 3025, 928.164672851563, 1506.95971679688, 671.875, 89.3023223876953, -2.83901858329773, -4.39018535614014, 8.95272254943848, -2.30534362792969, -1.37404584884644, 0.106870226562023,Starts
0:25/12/2019 17:14:51.738,5.226096, 4_Baseline, 436959.6324786, 3025, 928.164672851563, 1531.8681640625, 671.875, 89.3023223876953, -2.7839617729187, -4.36624765396118, 8.97666072845459, -1.22137403488159, -1.60305345058441, 0.183206111192703,Starts
0:25/12/2019 17:14:51.771,5.25912, 4_Baseline, 436959.6602323, 3024, 928.557556152344, 1554.57873535156, 671.875, 89.3023223876953, -2.81747460365295, -4.39497327804565, 8.94554138183594, -0.595419824123383, -2.13740468025208, 0.656488537788391,Starts
0:25/12/2019 17:14:51.771,5.259155, 4_Baseline, 436959.6604061, 3025, 928.164672851563, 1575.82421875, 671.875, 89.3023223876953, -2.7743866443634, -4.33512878417969, 8.90245342254639, -0.687022924423218, -2.47328233718872, 0.47328245639801,Starts
0:25/12/2019 17:14:51.771,5.259185, 4_Baseline, 436959.6605831, 3025, 928.164672851563, 1594.87182617188, 671.875, 89.3023223876953, -2.71932983398438, -4.30161571502686, 8.85936546325684, -0.625954210758209, -3.06870222091675, 0.47328245639801,Starts
0:25/12/2019 17:14:51.794,5.281706, 4_Baseline, 436959.6841365, 3023, 928.95068359375, 1609.52380371094, 671.875, 89.3023223876953, -2.65948534011841, -4.26570892333984, 8.83064079284668, -0.900763332843781, -3.60305333137512, -0.106870226562023,Starts
0:25/12/2019 17:14:51.794,5.281776, 4_Baseline, 436959.6842655, 3023, 928.95068359375, 1616.84985351563, 671.875, 89.3023223876953, -2.59485340118408, -4.25613403320313, 8.78276443481445, -1.29770994186401, -3.08396935462952, -0.0458015277981758,Starts
0:25/12/2019 17:14:51.794,5.281831, 4_Baseline, 436959.6862617, 3024, 928.557556152344, 1616.84985351563, 671.875, 89.3023223876953, -2.54697775840759, -4.26810312271118, 8.77558326721191, -2.18320608139038, -3.03816795349121, -0.152671754360199,Starts
0:25/12/2019 17:14:51.816,5.303851, 4_Baseline, 436959.7100864, 3023, 928.95068359375, 1610.25646972656, 671.875, 89.3023223876953, -2.44883298873901, -4.19868326187134, 8.73010158538818, -2.93129777908325, -2.65648865699768, -1.14503812789917,Starts
0:25/12/2019 17:14:51.816,5.303885, 4_Baseline, 436959.7102887, 3022, 929.344177246094, 1598.53479003906, 671.875, 89.3023223876953, -2.42968273162842, -4.16995811462402, 8.727707862854, -4.04580163955688, -2.36641216278076, -1.3893129825592,Starts
0:25/12/2019 17:14:51.816,5.30391, 4_Baseline, 436959.7104296, 3022, 929.344177246094, 1582.41760253906, 671.875, 89.3023223876953, -2.40574502944946, -4.15798902511597, 8.65110683441162, -5.0839695930481, -1.7404580116272, -1.83206105232239,Starts
0:25/12/2019 17:14:51.828,5.315836, 4_Baseline, 436959.7150491, 3023, 928.95068359375, 1567.765625, 671.875, 89.3023223876953, -2.40574502944946, -4.18432092666626, 8.59844398498535, -5.87786245346069, -1.64885497093201, -1.67938935756683,Starts
0:25/12/2019 17:14:51.828,5.315912, 4_Baseline, 436959.7152458, 3023, 928.95068359375, 1549.45056152344, 671.875, 89.3023223876953, -2.43207669258118, -4.20825862884521, 8.67265129089355, -6.47328233718872, -1.06870234012604, -2.24427485466003,Starts
0:25/12/2019 17:14:51.846,5.333312, 4_Baseline, 436959.7351036, 3022, 929.344177246094, 1530.40295410156, 671.875, 89.3023223876953, -2.50149607658386, -4.27289056777954, 8.68461990356445, -7.28244256973267, -1.72519087791443, -2.76335883140564,Starts
0:25/12/2019 17:14:51.846,5.333344, 4_Baseline, 436959.7353405, 3023, 928.95068359375, 1512.087890625, 671.875, 89.3023223876953, -2.52064633369446, -4.26810312271118, 8.70377063751221, -7.83206129074097, -1.31297707557678, -3.11450386047363,Starts
0:25/12/2019 17:14:51.846,5.333368, 4_Baseline, 436959.740006, 3022, 929.344177246094, 1496.70324707031, 671.875, 89.3023223876953, -2.54219031333923, -4.31597852706909, 8.79473400115967, -8.16793918609619, -1.54198467731476, -3.84732818603516,Starts
0:25/12/2019 17:14:51.872,5.359743, 4_Baseline, 436959.7599819, 3021, 929.738037109375, 1482.78393554688, 671.875, 89.3023223876953, -2.53979659080505, -4.33752250671387, 8.81627750396729, -8.33587741851807, -1.175572514534, -4.24427461624146,Starts
0:25/12/2019 17:14:51.872,5.359777, 4_Baseline, 436959.7602502, 3022, 929.344177246094, 1469.59704589844, 671.875, 89.3023223876953, -2.56373429298401, -4.37821674346924, 8.84739685058594, -9.06870269775391, -0.503816783428192, -4.22900772094727,Starts
0:25/12/2019 17:14:51.895,5.38205, 4_Baseline, 436959.7849396, 3020, 930.132202148438, 1454.21240234375, 671.875, 89.3023223876953, -2.57570314407349, -4.37342929840088, 8.82345867156982, -9.3435115814209, -1.00763356685638, -4.47328233718872,Starts
0:25/12/2019 17:14:51.895,5.382085, 4_Baseline, 436959.7851117, 3020, 930.132202148438, 1435.16479492188, 671.875, 89.3023223876953, -2.60921597480774, -4.39257907867432, 8.88330364227295, -9.49618339538574, -0.992366433143616, -5.03816795349121,Starts
0:25/12/2019 17:14:51.895,5.382118, 4_Baseline, 436959.7852594, 3020, 930.132202148438, 1414.65197753906, 671.875, 89.3023223876953, -2.58049082756042, -4.42848587036133, 8.82106494903564, -9.60305309295654, -1.11450386047363, -4.99236631393433,Starts
0:25/12/2019 17:14:51.895,5.382144, 4_Baseline, 436959.7868266, 3020, 930.132202148438, 1393.40661621094, 671.875, 89.3023223876953, -2.60442852973938, -4.40933561325073, 8.78515815734863, -9.77099227905273, -1.14503812789917, -5.26717567443848,Starts
0:25/12/2019 17:14:51.895,5.38217, 4_Baseline, 436959.788859, 3019, 930.526672363281, 1376.55676269531, 671.875, 89.3023223876953, -2.49431467056274, -4.41891098022461, 8.65589427947998, -9.58778667449951, -1.11450386047363, -5.40458011627197,Starts
0:25/12/2019 17:14:51.917,5.404377, 4_Baseline, 436959.8089261, 3020, 930.132202148438, 1361.90478515625, 671.875, 89.3023223876953, -2.45840811729431, -4.44524240493774, 8.6415319442749, -9.25190830230713, -1.00763356685638, -5.35877847671509,Starts
0:25/12/2019 17:14:51.917,5.404444, 4_Baseline, 436959.8107251, 3018, 930.921508789063, 1349.45056152344, 671.875, 89.3023223876953, -2.41532015800476, -4.51466178894043, 8.62716960906982, -7.64885473251343, -0.213740453124046, -4.71755743026733,Starts
0:25/12/2019 17:14:51.928,5.415631, 4_Baseline, 436959.8148333, 3018, 930.921508789063, 1339.9267578125, 671.875, 89.3023223876953, -2.42489528656006, -4.53859949111938, 8.67743873596191, -6.9160304069519, 0.488549619913101, -4.94656467437744,Starts
0:25/12/2019 17:14:51.962,5.450509, 4_Baseline, 436959.8528131, 3018, 930.921508789063, 1334.06591796875, 671.875, 89.3023223876953, -2.37701964378357, -4.55774974822998, 8.74685859680176, -5.58778619766235, 1.60305345058441, -4.93129777908325,Starts
0:25/12/2019 17:14:51.962,5.450546, 4_Baseline, 436959.8536352, 3018, 930.921508789063, 1332.60070800781, 671.875, 89.3023223876953, -2.36265707015991, -4.61041307449341, 8.79473400115967, -5.06870222091675, 2.77862596511841, -4.44274806976318,Starts
0:25/12/2019 17:14:51.962,5.450578, 4_Baseline, 436959.8557385, 3017, 931.316711425781, 1330.40295410156, 671.875, 89.3023223876953, -2.42250156402588, -4.57211256027222, 8.79952144622803, -4.16793870925903, 3.60305333137512, -3.78625965118408,Starts
0:25/12/2019 17:14:51.962,5.450603, 4_Baseline, 436959.8558933, 3017, 931.316711425781, 1330.40295410156, 671.875, 89.3023223876953, -2.48713350296021, -4.60323143005371, 8.80909633636475, -2.90076327323914, 4.58015251159668, -2.6106870174408,Starts
0:25/12/2019 17:14:51.972,5.460506, 4_Baseline, 436959.8596618, 3017, 931.316711425781, 1329.67028808594, 671.875, 89.3023223876953, -2.56852173805237, -4.60323143005371, 8.82824611663818, -2.45801520347595, 4.41221380233765, -2.13740468025208,Starts
0:25/12/2019 17:14:52.003,5.490751, 4_Baseline, 436959.8836821, 3017, 931.316711425781, 1331.8681640625, 671.875, 89.3023223876953, -2.63554763793945, -4.63195705413818, 8.80430889129639, -1.34351146221161, 4.80916023254395, -1.83206105232239,Starts
0:25/12/2019 17:14:52.003,5.490828, 4_Baseline, 436959.8855621, 3016, 931.712219238281, 1334.06591796875, 671.875, 89.3023223876953, -2.67384791374207, -4.62477540969849, 8.73249530792236, -0.671755731105804, 4.2595419883728, -1.22137403488159,Starts
0:25/12/2019 17:14:52.003,5.490902, 4_Baseline, 436959.8858329, 3017, 931.316711425781, 1338.46154785156, 671.875, 89.3023223876953, -2.70975470542908, -4.62716913223267, 8.71334552764893, 0.259541988372803, 4.87022924423218, -0.0763358771800995,Starts
0:25/12/2019 17:14:52.018,5.505817, 4_Baseline, 436959.9095214, 3016, 931.712219238281, 1342.12451171875, 671.875, 89.3023223876953, -2.73129868507385, -4.63913822174072, 8.68701362609863, 1.175572514534, 4.83969449996948, 1.54198467731476,Starts
0:25/12/2019 17:14:52.018,5.50587, 4_Baseline, 436959.9097238, 3016, 931.712219238281, 1346.52014160156, 671.875, 89.3023223876953, -2.70736074447632, -4.61280679702759, 8.67504501342773, 1.93893134593964, 5.0839695930481, 2.04580163955688,Starts
0:25/12/2019 17:14:52.018,5.505918, 4_Baseline, 436959.9098552, 3015, 932.108032226563, 1353.84619140625, 671.875, 89.3023223876953, -2.68581676483154, -4.58408117294312, 8.68222618103027, 2.38167929649353, 4.96183204650879, 1.92366409301758,Starts
0:25/12/2019 17:14:52.018,5.505969, 4_Baseline, 436959.9115158, 3016, 931.712219238281, 1356.77661132813, 671.875, 89.3023223876953, -2.69060444831848, -4.53381204605103, 8.71334552764893, 2.50381684303284, 4.16793870925903, 2.10687017440796,Starts
0:25/12/2019 17:14:52.048,5.535605, 4_Baseline, 436959.9335006, 3015, 932.108032226563, 1361.17211914063, 656.25, 91.4285736083984, -2.76002383232117, -4.48833036422729, 8.68222618103027, 1.96946561336517, 3.75572514533997, 2.12213730812073,Starts
0:25/12/2019 17:14:52.048,5.535637, 4_Baseline, 436959.9355518, 3016, 931.712219238281, 1363.36999511719, 656.25, 91.4285736083984, -2.77199292182922, -4.52184343338013, 8.66307640075684, 2.33587789535522, 2.50381684303284, 2.36641216278076,Starts
0:25/12/2019 17:14:52.048,5.535659, 4_Baseline, 436959.9356952, 3015, 932.108032226563, 1366.30041503906, 656.25, 91.4285736083984, -2.79114294052124, -4.52184343338013, 8.62238216400146, 2.19847321510315, 1.14503812789917, 1.96946561336517,Starts
0:25/12/2019 17:14:52.048,5.535717, 4_Baseline, 436959.9374182, 3015, 932.108032226563, 1370.69592285156, 656.25, 91.4285736083984, -2.74805498123169, -4.51944923400879, 8.58168792724609, 2.59541988372803, 0.106870226562023, 1.61832058429718,Starts
0:25/12/2019 17:14:52.074,5.562369, 4_Baseline, 436959.9604887, 3014, 932.504211425781, 1376.55676269531, 656.25, 91.4285736083984, -2.71932983398438, -4.50508689880371, 8.5673246383667, 2.88549613952637, -1.20610690116882, 1.54198467731476,Starts
0:25/12/2019 17:14:52.086,5.573853, 4_Baseline, 436959.9774262, 3015, 932.108032226563, 1380.95239257813, 656.25, 91.4285736083984, -2.69539189338684, -4.46199893951416, 8.60801887512207, 2.36641216278076, -1.93893134593964, 1.87786257266998,Starts
0:25/12/2019 17:14:52.098,5.585653, 4_Baseline, 436959.9873434, 3014, 932.504211425781, 1389.01098632813, 656.25, 91.4285736083984, -2.64991021156311, -4.45242357254028, 8.61520004272461, 2.07633590698242, -2.67175579071045, 1.22137403488159,Starts
0:25/12/2019 17:14:52.098,5.585729, 4_Baseline, 436959.9913408, 3014, 932.504211425781, 1394.13916015625, 656.25, 91.4285736083984, -2.60921597480774, -4.47157382965088, 8.63913822174072, 2.32061076164246, -2.62595415115356, 1.23664116859436,Starts
0:25/12/2019 17:14:52.098,5.585782, 4_Baseline, 436959.991467, 3016, 931.712219238281, 1400.73254394531, 656.25, 91.4285736083984, -2.51346492767334, -4.46678638458252, 8.67025756835938, 2.30534362792969, -2.47328233718872, 0.732824444770813,Starts
0:25/12/2019 17:14:52.108,5.596272, 4_Baseline, 436959.9933363, 3015, 932.108032226563, 1405.12817382813, 656.25, 91.4285736083984, -2.48473978042603, -4.4691801071167, 8.73010158538818, 2.01526713371277, -1.67938935756683, 0.687022924423218,Starts
0:25/12/2019 17:14:52.120,5.607863, 4_Baseline, 436960.0092532, 3013, 932.900756835938, 1406.59338378906, 656.25, 91.4285736083984, -2.51585865020752, -4.45242357254028, 8.76361465454102, 1.20610690116882, -1.32824432849884, 0.687022924423218,Starts
0:25/12/2019 17:14:52.120,5.607902, 4_Baseline, 436960.0112094, 3013, 932.900756835938, 1410.98901367188, 656.25, 91.4285736083984, -2.52543377876282, -4.46199893951416, 8.75882720947266, 0.580152690410614, -0.870229005813599, 0.687022924423218,Starts
0:25/12/2019 17:14:52.120,5.607929, 4_Baseline, 436960.0114189, 3015, 932.108032226563, 1413.91943359375, 656.25, 91.4285736083984, -2.57330942153931, -4.45721101760864, 8.74446392059326, -0.0610687024891377, -0.671755731105804, 0.7175572514534,Starts
0:25/12/2019 17:14:52.143,5.630609, 4_Baseline, 436960.0352564, 3014, 932.504211425781, 1415.38464355469, 656.25, 91.4285736083984, -2.6020348072052, -4.51226806640625, 8.73010158538818, -0.0610687024891377, -0.458015263080597, 0.687022924423218,Starts
0:25/12/2019 17:14:52.143,5.630645, 4_Baseline, 436960.0357856, 3012, 933.297607421875, 1418.31506347656, 656.25, 91.4285736083984, -2.62357878684998, -4.51466178894043, 8.71813297271729, 0.122137404978275, -0.641221344470978, 1.37404584884644,Starts
0:25/12/2019 17:14:52.143,5.630677, 4_Baseline, 436960.0371689, 3013, 932.900756835938, 1419.7802734375, 656.25, 91.4285736083984, -2.66427278518677, -4.54099321365356, 8.68701362609863, 0.381679385900497, -0.732824444770813, 1.66412210464478,Starts
0:25/12/2019 17:14:52.165,5.652432, 4_Baseline, 436960.0591525, 3012, 933.297607421875, 1420.51281738281, 656.25, 91.4285736083984, -2.67384791374207, -4.54578113555908, 8.66068267822266, 0.412213742733002, -1.05343508720398, 2.01526713371277,Starts
0:25/12/2019 17:14:52.176,5.663493, 4_Baseline, 436960.0615489, 3013, 932.900756835938, 1424.17578125, 656.25, 91.4285736083984, -2.70257329940796, -4.55296230316162, 8.66307640075684, 1.08396947383881, -1.37404584884644, 1.9541984796524,Starts
0:25/12/2019 17:14:52.199,5.686767, 4_Baseline, 436960.0851131, 3012, 933.297607421875, 1428.57141113281, 656.25, 91.4285736083984, -2.678635597229, -4.53620576858521, 8.67983245849609, 1.35877859592438, -2.06106877326965, 1.64885497093201,Starts
0:25/12/2019 17:14:52.199,5.686833, 4_Baseline, 436960.0852688, 3012, 933.297607421875, 1432.234375, 656.25, 91.4285736083984, -2.66666674613953, -4.51226806640625, 8.69898223876953, 1.89312982559204, -2.35114502906799, 1.98473286628723,Starts
0:25/12/2019 17:14:52.221,5.708381, 4_Baseline, 436960.1090511, 3011, 933.694763183594, 1435.8974609375, 656.25, 91.4285736083984, -2.64272880554199, -4.48114919662476, 8.727707862854, 1.4351145029068, -2.50381684303284, 1.78625953197479,Starts
0:25/12/2019 17:14:52.221,5.708416, 4_Baseline, 436960.1110058, 3011, 933.694763183594, 1441.75830078125, 656.25, 91.4285736083984, -2.65948534011841, -4.47875547409058, 8.71334552764893, 1.19083964824677, -2.70229005813599, 2.51908397674561,Starts
0:25/12/2019 17:14:52.221,5.70844, 4_Baseline, 436960.1112477, 3011, 933.694763183594, 1447.61901855469, 656.25, 91.4285736083984, -2.72172355651855, -4.51226806640625, 8.72052669525146, 1.09923660755157, -2.76335883140564, 2.59541988372803,Starts
0:25/12/2019 17:14:52.221,5.708469, 4_Baseline, 436960.1114366, 3009, 934.490173339844, 1451.28210449219, 656.25, 91.4285736083984, -2.75044894218445, -4.52184343338013, 8.727707862854, 1.45038163661957, -3.37404584884644, 3.06870222091675,Starts
0:25/12/2019 17:14:52.221,5.708493, 4_Baseline, 436960.1139738, 3009, 934.490173339844, 1452.74719238281, 656.25, 91.4285736083984, -2.76720523834229, -4.49072408676147, 8.71334552764893, 0.931297719478607, -3.78625965118408, 4.01526737213135,Starts
0:25/12/2019 17:14:52.232,5.719536, 4_Baseline, 436960.1160161, 3010, 934.09228515625, 1455.67761230469, 656.25, 91.4285736083984, -2.87492513656616, -4.50269317626953, 8.67743873596191, 1.09923660755157, -4.48854970932007, 4.76335859298706,Starts
0:25/12/2019 17:14:52.255,5.742064, 4_Baseline, 436960.1389389, 3008, 934.888366699219, 1455.67761230469, 656.25, 91.4285736083984, -2.89168167114258, -4.51466178894043, 8.68701362609863, 1.23664116859436, -5.41984748840332, 4.44274806976318,Starts
0:25/12/2019 17:14:52.255,5.742107, 4_Baseline, 436960.1408774, 3009, 934.490173339844, 1454.21240234375, 656.25, 91.4285736083984, -2.77678036689758, -4.48593664169312, 8.69180107116699, 2.45801520347595, -6, 3.95419836044312,Starts
0:25/12/2019 17:14:52.255,5.742134, 4_Baseline, 436960.14493, 3007, 935.286926269531, 1448.35168457031, 656.25, 91.4285736083984, -2.6882107257843, -4.47875547409058, 8.67265129089355, 2.79389309883118, -6.27480936050415, 3.51145029067993,Starts
0:25/12/2019 17:14:52.255,5.742162, 4_Baseline, 436960.145174, 3007, 935.286926269531, 1441.75830078125, 656.25, 91.4285736083984, -2.64033508300781, -4.44524240493774, 8.67983245849609, 2.53435111045837, -6.42748069763184, 4.45801544189453,Starts
0:25/12/2019 17:14:52.265,5.752656, 4_Baseline, 436960.1590418, 3007, 935.286926269531, 1435.8974609375, 656.25, 91.4285736083984, -2.64272880554199, -4.46199893951416, 8.70377063751221, 2.65648865699768, -6.33587789535522, 5.00763368606567,Starts
0:25/12/2019 17:14:52.277,5.764024, 4_Baseline, 436960.1607994, 3007, 935.286926269531, 1433.69958496094, 656.25, 91.4285736083984, -2.62357878684998, -4.46439266204834, 8.727707862854, 2.41221380233765, -6.53435134887695, 5.0839695930481,Starts
0:25/12/2019 17:14:52.300,5.786858, 4_Baseline, 436960.1847971, 3005, 936.085021972656, 1432.234375, 656.25, 91.4285736083984, -2.61879110336304, -4.47157382965088, 8.7396764755249, 3.03816795349121, -6.50381660461426, 4.88549613952637,Starts
0:25/12/2019 17:14:52.300,5.786894, 4_Baseline, 436960.1870864, 3006, 935.685852050781, 1428.57141113281, 656.25, 91.4285736083984, -2.62836623191834, -4.45242357254028, 8.72531414031982, 3.32824420928955, -6.3969464302063, 4.99236631393433,Starts
0:25/12/2019 17:14:52.300,5.786919, 4_Baseline, 436960.1873516, 3006, 935.685852050781, 1423.44323730469, 656.25, 91.4285736083984, -2.67145419120789, -4.47157382965088, 8.7540397644043, 3.66412210464478, -6.59541988372803, 6.01526737213135,Starts
0:25/12/2019 17:14:52.300,5.786941, 4_Baseline, 436960.1888663, 3004, 936.484619140625, 1418.31506347656, 656.25, 91.4285736083984, -2.65709161758423, -4.50029945373535, 8.75882720947266, 3.96946573257446, -7.00763368606567, 5.51145029067993,Starts
0:25/12/2019 17:14:52.316,5.804495, 4_Baseline, 436960.208865, 3003, 936.884521484375, 1414.65197753906, 656.25, 91.4285736083984, -2.59724712371826, -4.48593664169312, 8.77079582214355, 4.58015251159668, -7.48091602325439, 5.35877847671509,Starts
0:25/12/2019 17:14:52.316,5.804531, 4_Baseline, 436960.2108324, 3003, 936.884521484375, 1411.72155761719, 656.25, 91.4285736083984, -2.51825261116028, -4.47875547409058, 8.79234027862549, 4.96183204650879, -6.9160304069519, 5.51145029067993,Starts
0:25/12/2019 17:14:52.316,5.804555, 4_Baseline, 436960.2109714, 3002, 937.284790039063, 1408.79125976563, 656.25, 91.4285736083984, -2.49192094802856, -4.48354291915894, 8.80430889129639, 5.40458011627197, -6.51908397674561, 5.8625955581665,Starts
0:25/12/2019 17:14:52.343,5.830953, 4_Baseline, 436960.2337232, 3001, 937.685363769531, 1407.32604980469, 656.25, 91.4285736083984, -2.48473978042603, -4.44284868240356, 8.77558326721191, 5.09923648834229, -5.84732818603516, 5.89312982559204,Starts
0:25/12/2019 17:14:52.343,5.83099, 4_Baseline, 436960.2356317, 3002, 937.284790039063, 1410.25646972656, 656.25, 91.4285736083984, -2.39138245582581, -4.45242357254028, 8.76361465454102, 5.80152654647827, -5.0839695930481, 5.70992374420166,Starts
0:25/12/2019 17:14:52.343,5.831017, 4_Baseline, 436960.2358252, 3001, 937.685363769531, 1413.18676757813, 656.25, 91.4285736083984, -2.4009575843811, -4.46199893951416, 8.78755283355713, 6.30534362792969, -4.04580163955688, 5.28244256973267,Starts
0:25/12/2019 17:14:52.365,5.853171, 4_Baseline, 436960.2586606, 3000, 938.086303710938, 1416.84985351563, 656.25, 91.4285736083984, -2.38659477233887, -4.47396755218506, 8.78755283355713, 6.87022924423218, -3.20610690116882, 5.00763368606567,Starts
0:25/12/2019 17:14:52.376,5.864452, 4_Baseline, 436960.2606527, 3001, 937.685363769531, 1422.71057128906, 656.25, 91.4285736083984, -2.314781665802, -4.41651725769043, 8.81149005889893, 6.76335859298706, -1.81679391860962, 5.02290058135986,Starts
0:25/12/2019 17:14:52.399,5.887159, 4_Baseline, 436960.2835206, 2999, 938.487609863281, 1432.234375, 656.25, 91.4285736083984, -2.37462592124939, -4.41412305831909, 8.76840209960938, 6.77862596511841, -2.15267181396484, 5.17557239532471,Starts
0:25/12/2019 17:14:52.399,5.887193, 4_Baseline, 436960.2837544, 2999, 938.487609863281, 1444.68859863281, 656.25, 91.4285736083984, -2.41532015800476, -4.41172933578491, 8.79712772369385, 7.32824420928955, -1.05343508720398, 4.70229005813599,Starts
0:25/12/2019 17:14:52.399,5.887219, 4_Baseline, 436960.2856687, 2998, 938.889221191406, 1457.14282226563, 656.25, 91.4285736083984, -2.44404554367065, -4.43087959289551, 8.79473400115967, 7.54198455810547, -0.412213742733002, 4.45801544189453,Starts
0:25/12/2019 17:14:52.399,5.887241, 4_Baseline, 436960.2858508, 2998, 938.889221191406, 1467.39929199219, 656.25, 91.4285736083984, -2.42489528656006, -4.39976072311401, 8.80191516876221, 7.28244256973267, 0.229007631540298, 4.30534362792969,Starts
0:25/12/2019 17:14:52.421,5.909465, 4_Baseline, 436960.3094663, 2996, 939.693481445313, 1484.2490234375, 656.25, 91.4285736083984, -2.46080183982849, -4.38539791107178, 8.81388378143311, 7.54198455810547, 0.198473289608955, 3.98473286628723,Starts
0:25/12/2019 17:14:52.433,5.920883, 4_Baseline, 436960.3225759, 2994, 940.499145507813, 1498.16845703125, 656.25, 91.4285736083984, -2.54697775840759, -4.31358480453491, 8.81867122650146, 7.23664140701294, 0.931297719478607, 3.93893122673035,Starts
0:25/12/2019 17:14:52.433,5.920921, 4_Baseline, 436960.3243616, 2992, 941.30615234375, 1508.42492675781, 656.25, 91.4285736083984, -2.56852173805237, -4.31837224960327, 8.80430889129639, 6.79389333724976, 0.854961812496185, 3.37404584884644,Starts
0:25/12/2019 17:14:52.444,5.932102, 4_Baseline, 436960.3344117, 2990, 942.114624023438, 1516.48352050781, 656.25, 91.4285736083984, -2.59006571769714, -4.31597852706909, 8.78994655609131, 7.03816795349121, 0.549618303775787, 3.17557263374329,Starts
0:25/12/2019 17:14:52.473,5.961095, 4_Baseline, 436960.362382, 2989, 942.519348144531, 1524.54211425781, 656.25, 91.4285736083984, -2.5828845500946, -4.33512878417969, 8.78994655609131, 6.51908397674561, 0.351145029067993, 2.53435111045837,Starts
0:25/12/2019 17:14:52.473,5.961127, 4_Baseline, 436960.3643107, 2989, 942.519348144531, 1532.60070800781, 656.25, 91.4285736083984, -2.54937171936035, -4.30640316009521, 8.77558326721191, 6.51908397674561, 0.839694678783417, 2.6106870174408,Starts
0:25/12/2019 17:14:52.473,5.96115, 4_Baseline, 436960.3645385, 2988, 942.924438476563, 1538.46154785156, 656.25, 91.4285736083984, -2.57570314407349, -4.28007173538208, 8.78037071228027, 6.59541988372803, 0.458015263080597, 2.48854970932007,Starts
0:25/12/2019 17:14:52.473,5.961175, 4_Baseline, 436960.3664038, 2986, 943.735595703125, 1536.99633789063, 656.25, 91.4285736083984, -2.56134057044983, -4.28485918045044, 8.7396764755249, 6.29007625579834, 0.47328245639801, 2.6106870174408,Starts
0:25/12/2019 17:14:52.477,5.964965, 4_Baseline, 436960.3682636, 2986, 943.735595703125, 1533.33337402344, 656.25, 91.4285736083984, -2.45840811729431, -4.29922199249268, 8.72531414031982, 6.77862596511841, 0.366412222385406, 2.18320608139038,Starts
0:25/12/2019 17:14:52.477,5.965, 4_Baseline, 436960.3684747, 2986, 943.735595703125, 1528.205078125, 656.25, 91.4285736083984, -2.46080183982849, -4.2968282699585, 8.73010158538818, 7.00763368606567, 1.16030538082123, 3.22137403488159,Starts
0:25/12/2019 17:14:52.500,5.988007, 4_Baseline, 436960.3842632, 2984, 944.548217773438, 1522.34436035156, 656.25, 91.4285736083984, -2.53979659080505, -4.34949111938477, 8.7540397644043, 7.3435115814209, 1.08396947383881, 4.62595415115356,Starts
0:25/12/2019 17:14:52.500,5.988044, 4_Baseline, 436960.3844398, 2984, 944.548217773438, 1515.01831054688, 656.25, 91.4285736083984, -2.62357878684998, -4.35906648635864, 8.75643348693848, 8.21374034881592, 1.175572514534, 6.32061052322388,Starts
0:25/12/2019 17:14:52.523,6.010263, 4_Baseline, 436960.4102365, 2984, 944.548217773438, 1508.42492675781, 656.25, 91.4285736083984, -2.72411727905273, -4.42609214782715, 8.79712772369385, 9.83206081390381, 1.16030538082123, 7.58778619766235,Starts
0:25/12/2019 17:14:52.523,6.010313, 4_Baseline, 436960.4105071, 2982, 945.362243652344, 1502.56408691406, 656.25, 91.4285736083984, -2.70257329940796, -4.50029945373535, 8.87372875213623, 11.9541988372803, 1.52671754360199, 8.99236679077148,Starts
0:25/12/2019 17:14:52.523,6.010355, 4_Baseline, 436960.4106536, 2980, 946.177612304688, 1498.90112304688, 656.25, 91.4285736083984, -2.65709161758423, -4.53859949111938, 8.90963459014893, 15.8473281860352, 2.27480912208557, 10.8244276046753,Starts
0:25/12/2019 17:14:52.523,6.010379, 4_Baseline, 436960.4121174, 2979, 946.585876464844, 1493.77294921875, 656.25, 91.4285736083984, -2.67624187469482, -4.56014347076416, 9.01735496520996, 18.9160308837891, 2.88549613952637, 12.9465646743774,Starts
0:25/12/2019 17:14:52.523,6.010408, 4_Baseline, 436960.4142004, 2978, 946.994445800781, 1488.64465332031, 656.25, 91.4285736083984, -2.76959896087646, -4.50029945373535, 9.06283664703369, 20.9618320465088, 3.00763368606567, 14.6259546279907,Starts
0:25/12/2019 17:14:52.545,6.032274, 4_Baseline, 436960.4352609, 2978, 946.994445800781, 1483.51647949219, 656.25, 91.4285736083984, -3.09754633903503, -4.35906648635864, 9.10592460632324, 22.1068706512451, 2.24427485466003, 16.6106872558594,Starts
0:25/12/2019 17:14:52.545,6.032339, 4_Baseline, 436960.4370919, 2976, 947.812683105469, 1479.12084960938, 656.25, 91.4285736083984, -3.2339916229248, -4.27049684524536, 9.10831832885742, 22.8396949768066, 1.1297709941864, 17.4961833953857,Starts
0:25/12/2019 17:14:52.556,6.043581, 4_Baseline, 436960.4421829, 2975, 948.222290039063, 1472.52746582031, 656.25, 91.4285736083984, -3.34649920463562, -4.17713928222656, 9.07480525970459, 23.5572509765625, -0.946564912796021, 17.4809169769287,Starts
